,0,1,2,3,4,5,6,7,8,9,10,11,12,13,14,15,16,17,18,19,20,21,22,23,24,25,26,27,28,29,30,31,32,33,34,35,36,37,38,39,40,41,42,43,44,45,46,47,48,49,50,51,52,53,54,55,56,57,58,59,60,61,62,63,64,65,66,67,68,69,70,71,72,73,74,75,76,77,78,79,80,81,82,83,84,85,86,87,88,89,90,91,92,93,94,95,96,97,98,99,100,101,102,103,104,105,106,107,108,109,110,111,112,113,114,115,116,117,118,119,120,121,122,123,124,125,126,127,128,129,130,131,132,133,134,135,136,137,138,139,140,141,142,143,144,145,146,147,148,149,150,151,152,153,154,155,156,157,158,159,160,161,162,163,164,165,166,167,168,169,170,171,172,173,174,175,176,177,178,179,180,181,182,183,184,185,186,187,188,189,190,191,192,193,194,195,196,197,198,199,200,201,202,203,204,205,206,207,208,209,210,211,212,213,214,215,216,217,218,219,220,221,222,223,224,225,226,227,228,229,230,231,232,233,234,235,236,237,238,239,240,241,242,243,244,245,246,247,248,249,250,251,252,253,254,Target
0,0.7034797544572515,0.6579328923565817,0.6248111364730149,0.5724615368420021,0.5521289427652074,0.6062551300352951,0.6224709041469922,0.6179888273373453,0.6332495874926773,0.6172121532556134,0.6091803168705705,0.5925459477689885,0.5834954500648721,0.5833331396345565,0.6142161401586779,0.6265928579759286,0.6322595120646617,0.6574686999823585,0.6717147622929853,0.6517898478365303,0.6520299289314395,0.7194875143057059,0.8092848694535903,0.8892831220867188,0.955961859589776,1.0000000000000004,0.9967262131151932,0.9580823310388182,0.9054511598402342,0.8592724268945502,0.8107704253091366,0.7767541251960348,0.7333225717693188,0.7359254724612296,0.7692628275460955,0.7024754131137168,0.6387805391128185,0.6916457720866549,0.6977395803097104,0.6722356927880235,0.6812491489453856,0.6546200708911267,0.6095789285974429,0.5617370000032316,0.5439152296686394,0.5896430202904122,0.6325404569786683,0.634655211718639,0.6268703522060428,0.6074109920223756,0.5867796537615829,0.5694855367226439,0.5820493525579704,0.6012197676698805,0.6078779645463439,0.5900365256569251,0.6011325753007761,0.5864004972766579,0.5673963172683361,0.6226779306605921,0.7053728556422842,0.7881749257788271,0.8716325827763547,0.940261555028512,0.9796941244212972,0.9685591029413224,0.9272332298823716,0.8871539190780715,0.8606292430691549,0.8091192900519633,0.7597230562478283,0.7194211639373917,0.6922817427289281,0.7455159329064895,0.704597694839205,0.6089699454654505,0.6278077218258074,0.6942811195592298,0.7104799450730712,0.6677043618009706,0.6785302868497971,0.6643746538431716,0.6079837842657496,0.5569348455192391,0.5385443840920252,0.5747807535711638,0.6083166247014025,0.6062754893996467,0.5789736351028574,0.5608308716874517,0.5639107029417088,0.5853157013145229,0.6065731146962281,0.609861820891449,0.6060073589241539,0.6018991826876614,0.5857910811405067,0.5677979790603147,0.6197244486356657,0.7089040267857984,0.8012364791986593,0.8803977478803717,0.9451809724318454,0.9897613089588524,0.9858378794010032,0.9514631866349323,0.8963510218431591,0.8537809401441661,0.8179921099697505,0.7828099597132527,0.7374178264878819,0.7096944645592145,0.7443741948855069,0.6798163268740143,0.6571124880008923,0.7253603965834317,0.7478067376293809,0.7264977697781414,0.7257689945599366,0.7000705344517582,0.6413330012070131,0.6138036281441663,0.6379069863773394,0.63532508986034,0.610151192911061,0.5247024731127996,0.4414841746805953,0.3314874586153662,0.19578719100186825,0.06581890353548481,0.002001208505349794,0.0,0.03760977214276018,0.15483776513152714,0.28129527985568537,0.3840230621190099,0.5092638768415747,0.580696000626022,0.6367578762633781,0.6970025670603337,0.7318581276737004,0.772395926055546,0.8076333141795753,0.8607535065887091,0.8987424221532465,0.8956250707696376,0.8411945510895369,0.7645389393265432,0.6846910034430302,0.5907067363038405,0.503032539988681,0.4777173593736506,0.5058070376255368,0.5251302800221267,0.5286881605760958,0.5326851557477883,0.5202861804780032,0.5002210529661397,0.4801654713257539,0.4762007403404538,0.4909229753031843,0.5178945788893881,0.5340620692497073,0.4954574034004864,0.4480745057152804,0.4409089388739593,0.4828783768009903,0.525232724568105,0.5795906707461547,0.5859404856136998,0.5887122053731546,0.5823664167480307,0.4938342900740613,0.3828790264061621,0.29975817192343657,0.3292630987161305,0.4427462873240504,0.5452508167422789,0.5656961201270074,0.6297910531746482,0.6638192571378361,0.703478352307052,0.7490684721594651,0.7969836313641374,0.8329017376763965,0.8794762905084119,0.9070501897392824,0.8752095821252852,0.7949230526950974,0.7109240810452948,0.6306599214618847,0.5498100191801769,0.4889226754037472,0.4829314838446375,0.5183036239430598,0.5108040864915804,0.5187052249862703,0.5111404285299637,0.5105412683353525,0.4927201961493832,0.4665706191697945,0.5005423428830369,0.5280321372378936,0.5354380454244647,0.555104289073681,0.563809425636864,0.5530552375627997,0.5093535093345136,0.4516914949351212,0.4371195339641436,0.4851623505555018,0.5396478171730679,0.5778952973061995,0.5962445713642572,0.5807018080738016,0.5873845758556153,0.5180697656074771,0.41067432144727295,0.3390933618524943,0.3892917604416617,0.5132232088119699,0.5825197282271657,0.6372489638134993,0.6771993263168459,0.7243345527629246,0.7559999258103276,0.8071931745005982,0.8574256232146271,0.9020423982306656,0.9147326160258992,0.8616219224990993,0.7852144259346692,0.6998381254902015,0.6247271968801438,0.5648033545514228,0.5607161568761208,0.5901283576276,0.5832241926013793,0.5579326122626536,0.5372968244648555,0.534509693337252,0.5060600362713799,0.5007196601095432,0.5109116795140269,0.5413555259011678,0.5371966846960521,0.5497517979784727,0.5431192917150702,0.5231444832759462,0.4814547270873626,0.4526472254644842,0.4788112026855078,0.536227735816261,0.5731188862286074,0.6294128482483372,No
1,0.5095913295872188,0.5019655971365649,0.501800990545461,0.4988419971520099,0.4928240741930292,0.4907891721053392,0.4850309407039282,0.4947530088881607,0.4855184164631958,0.4817674985987406,0.4541248264355087,0.41733565675090745,0.3793129914451239,0.34478792662534863,0.3604919075992603,0.3854564078723235,0.4237430258257655,0.4387193486241712,0.4517025458989927,0.4594132021743986,0.4819669214281594,0.5394085422739816,0.6259749123204346,0.721227777380006,0.8112309603620784,0.9008410665853824,0.9746130679225821,0.9422546160797602,0.8438341122670536,0.7463906326390108,0.6499538272091141,0.5578288298452927,0.4938806609111826,0.5268475876869747,0.5542322722113058,0.5449891412657117,0.507713446482891,0.4705484897408878,0.47965833220897997,0.5233372821850018,0.5287845728702001,0.5289472582809589,0.5365265818572795,0.5380966424625213,0.5337894385223407,0.520828238956899,0.5127444138231354,0.5115468393181346,0.5112460186545746,0.4953376245292871,0.4901316177481338,0.4837294152496008,0.4789363083396787,0.4509618074445889,0.4075689023901332,0.36181890879139056,0.3630846697311143,0.3997317345479559,0.4226041054597873,0.4484081088949736,0.4670513079689656,0.4816176486031845,0.5007119640704629,0.5656676924389403,0.6472398318068424,0.7405325502461313,0.8361640589404731,0.9361825803291492,1.0,0.9768121304478647,0.8961049520420241,0.7897627845714719,0.692466395634415,0.5938337547095549,0.5279492107879604,0.53253262844557,0.5194772021504428,0.4905925977357084,0.4520931042017793,0.4158575486825979,0.4282577524946194,0.4554517493237445,0.4609480219736333,0.4446210840190261,0.4412783296591392,0.4275240717574391,0.41246755800568813,0.4109803583690814,0.4073716802400531,0.4047831130567929,0.4001192969880343,0.3933012468145378,0.3898493827144161,0.3740936474652363,0.3455300504371559,0.30237659736142675,0.2501944652679904,0.2105848266765276,0.2081183542141778,0.2321406780098454,0.25970797339659635,0.2729238682251536,0.2693246202414348,0.27449749203560625,0.29111560857192176,0.35174795406041914,0.4365845259247108,0.5257813928503565,0.6243527265458786,0.7162634854673975,0.7611320484152477,0.7065010789858115,0.6076035228178425,0.5049955588223738,0.4051614208042516,0.3432006042449416,0.3321971363768772,0.33391439207737506,0.29061518072796577,0.2330336555989643,0.15924675708321212,0.05473798894738513,0.0006807586519812503,0.011975916281476541,0.08399300413197253,0.19013462475430654,0.24161395030451605,0.19078593590068227,0.08853625752504124,0.012646396610623613,0.0005663710186727401,0.03685505485963825,0.11106935873946976,0.1969151653467449,0.26587196156027204,0.1971105086265692,0.08745780066099584,0.01219230357947998,0.0,0.02815680695341616,0.12158657684778353,0.2323332893131549,0.3089625048641809,0.27061255349451496,0.2252268691059593,0.19626445287753613,0.20803783101396126,0.21335213171907566,0.20491837900259968,0.1821432886377159,0.14875541957757402,0.13728170397840556,0.16014836418533296,0.19812990061547756,0.2547092632338366,0.29915527230089456,0.31948455369652784,0.3308556015346604,0.3315679765246644,0.3404554522997296,0.33793709148354045,0.3417656343304372,0.3456241642631519,0.35898560770260035,0.37757638157352735,0.3758660645464631,0.3855191109168992,0.3637921078238819,0.4020873189484964,0.3867556019727187,0.3639720564927504,0.35164236126852,0.3832926632636196,0.43240935563124827,0.4556715759968886,0.4247649270233427,0.3435598186729334,0.3205246508470623,0.3930148645342729,0.4725166141277697,0.5444074964084669,0.6358496646121035,0.7323617734091368,0.8062012780937771,0.7454514502314504,0.6522862096383681,0.5550541417078856,0.4757854578559582,0.4332814006575352,0.4101890121349636,0.39724970938282,0.3914041254263538,0.3802227416423292,0.3442471066967561,0.3301754663084027,0.2966002392365792,0.2883462774321264,0.3122243166804681,0.35637806572927033,0.3998736178667235,0.4113428188202993,0.41643607559016615,0.4332177940287538,0.4296384150546584,0.4502160305891128,0.4445350834088515,0.4523309157660021,0.4480251889174163,0.4712364639745768,0.4731203699072584,0.4662155368479262,0.4485357711810023,0.4593345441749843,0.4498204561727793,0.4360836228063816,0.4002118085142494,0.3872073148406807,0.3934731306095301,0.4427179627682931,0.4817737982287578,0.4799634488043676,0.4136159960062136,0.3460974901504441,0.3669443481990871,0.4524471051532388,0.5411318419310205,0.6308442399898584,0.7262772672385753,0.7314963896625759,0.6413140988553403,0.5486868936214715,0.4719407731424496,0.4247489790917527,0.39199366047410544,0.396497160076271,0.3797824479551597,0.3645417419603114,0.3372949515788037,0.30687646827602144,0.282032425564176,0.2876149977793689,0.3116197941797574,0.36165323629459856,0.3991938176215375,0.4158006112661429,0.4126601909389516,0.4267780523919416,0.4281363101585063,0.4298521156101076,0.4278978896183392,0.4273830492419419,0.4334537718149449,0.4152293745500524,0.4421799822341743,0.4497477394313241,No
2,0.4949195022043616,0.5031471726099164,0.485929221567921,0.42705933593910617,0.4436064510484803,0.5526797187692218,0.6438675246832188,0.7260591219613923,0.8279282178022904,0.9319478051781318,0.987727513990012,0.924800473275858,0.8263871227013904,0.7148793264965296,0.6132187648899879,0.5512658515428797,0.5475065878991736,0.5463553045198095,0.5368671922672874,0.531181160376474,0.5301649038987604,0.5140243974031335,0.4820438698083795,0.4770343490149833,0.5059617932114309,0.5106231046675833,0.510898834189415,0.5125887606257633,0.5280529475040492,0.5367203500015325,0.5265053090931379,0.545574048200363,0.5416592388746628,0.5440912205316204,0.5163333365286045,0.4982632599435242,0.5095958026864262,0.5117419031798165,0.5342574179282833,0.5467052746902143,0.5304980269020563,0.5168298375084857,0.512912858832145,0.4833753558053995,0.4097946039017404,0.3331280523249567,0.3815564881813942,0.4977070362035549,0.6056385157372133,0.7256900372993487,0.8376668472925259,0.9332644955786448,0.9327664906866876,0.8474680538522543,0.7481418014917312,0.6471454870329958,0.5722354837820793,0.5496363610921549,0.5606578691722861,0.5792191731998151,0.5748478869718561,0.5674822820404657,0.5509176074505007,0.5381311705576062,0.5056896478751867,0.5249703488095636,0.5478027600659825,0.5461327118616937,0.5333329021920896,0.557891571693176,0.5466410494489105,0.546559179800993,0.5384206958928353,0.5490264356961099,0.5437253588254585,0.5295176807393736,0.4973470073072268,0.4578133799160167,0.4448013357041938,0.4649424856917643,0.5033500940882512,0.5153756422936029,0.5150101124462885,0.5160211435437954,0.4826036243403595,0.4101659606164607,0.4214928748784659,0.5282338936013713,0.6393389588230662,0.757207264900984,0.8649333447243701,0.9731802870553724,1.0,0.9132519583425052,0.8066145710521333,0.7049133576969822,0.606748661741674,0.5488365844432073,0.5364822799682467,0.5298235464111021,0.5216495537304535,0.5243323485540055,0.5207694087596848,0.4853813915319374,0.4779511215020262,0.5094656151193662,0.5242881952446758,0.5118024155643544,0.5037675113539364,0.4873370311880789,0.48669425355292,0.4973595596767315,0.47993960087621795,0.4618556368146392,0.4561163472513337,0.4298758749019016,0.4218809292001571,0.4446296842429551,0.4700361094145733,0.4356386255345948,0.3945972536820031,0.3542997940592407,0.2968074278884689,0.18079769584172836,0.06423695224919035,0.01097536846817082,0.037229742751789814,0.14200638238854335,0.2621783694408664,0.3400867746510037,0.30781493939674265,0.1961999617684218,0.07768842748863047,0.008852879526221269,0.0,0.04378754547551456,0.1548940140157935,0.2739599099050243,0.329441603492727,0.2482302375509611,0.12757692377884666,0.02555785806531219,0.0003609669668365178,0.02306476572449645,0.12112549944727925,0.24187454011454745,0.33804178885659697,0.3817389120386285,0.4042100161886597,0.4186484515977438,0.4233236713945932,0.41909145814518256,0.42282569612346776,0.42617491142383335,0.4341181890432191,0.4454268802763015,0.4085465006300368,0.3969549164000976,0.4230267634808,0.4565257075155485,0.4562157334412626,0.4640684960681134,0.4678388900376618,0.4665117879818692,0.4470398278232266,0.4822331039586096,0.5692578486179602,0.6779332662265447,0.7148037893033549,0.6098471682227347,0.49431615007594504,0.38652752083686304,0.2974289139137261,0.2908529227808003,0.35846815439844804,0.4371147782083864,0.4549027651500315,0.4549603315972157,0.4388529909339716,0.395961446821222,0.366883789684104,0.3784702339146033,0.4016328868899035,0.43569282726471226,0.4568968613467668,0.4726051533092166,0.4432311376004496,0.4473558612801747,0.4413079705434977,0.4361858315518177,0.4472035322655983,0.4609103256514957,0.4604324117551468,0.4412996012084771,0.41142762611560624,0.4335044423388288,0.4587989267712898,0.4753335197607456,0.4991492512505245,0.5048533645601161,0.500664930204985,0.4887624844305489,0.4682542345912237,0.5278398532917064,0.6191192898548703,0.7138863373700572,0.7097150069577887,0.5948677616887545,0.4837159637075974,0.37061736720812855,0.26730179721313885,0.22455651409276056,0.2800735368517109,0.3689932498065875,0.4301911681336281,0.44744198195002216,0.4592152167339658,0.4621625869811479,0.4577787607036114,0.4362329083642957,0.4257381808933132,0.4268379360873382,0.4626057090548947,0.4798265843650849,0.4759543199666263,0.4734007125047661,0.447656497993806,0.4591686102314152,0.4501692597866929,0.44765027887916103,0.44117415880563904,0.4399797773685559,0.4219605101835167,0.3928867281903017,0.4093567469206771,0.423484597850532,0.4574402225979299,0.44894651168827737,0.4694690026623745,0.4752093933295427,0.469579816337569,0.4852332753536284,0.4680619551455543,0.5245173491260653,0.6202424654544512,0.7154990926237481,0.7030140757507377,0.5994692555090868,0.4921498998089415,0.3802368074665634,0.31572031989662364,0.3461092046827132,0.4123671888456508,0.4277626856171497,0.4231317825891439,No
3,0.6817222542429104,0.7319955018511002,0.7548770292240801,0.7633988984027966,0.7588879711550627,0.7765734024872737,0.7632061700755988,0.7488188523633466,0.747785134740703,0.74593278059421,0.7242495257746397,0.6922887800989956,0.6759487416296448,0.7059225151245561,0.7409225660375438,0.7711879168507996,0.8127801759882471,0.8469660373641403,0.8651152525141224,0.8867161883613535,0.9440874874263688,0.9321395022176646,0.8427537963903768,0.7420382469091509,0.6360173477692759,0.5267558638706662,0.4437973689014476,0.5171302623786689,0.6367265560356872,0.7544533633497763,0.8597393586148945,0.9700605293456784,1.0,0.9212310932572648,0.8602291851769959,0.8454950707596431,0.8276519385104124,0.7766580688953946,0.7495971685661345,0.7639832346818793,0.8035597399480445,0.8064523893831361,0.8016637353631837,0.7915810344385683,0.8005506693647124,0.7919946564805085,0.7895426860984975,0.7926263086093601,0.794189526290813,0.7847393787241259,0.7474790014691286,0.7043808867753127,0.7154457846943769,0.7402756702301252,0.7695407823698894,0.7924603006612774,0.7979899215199051,0.8055107227105966,0.7967394006797175,0.84431086366541,0.9077921352718009,0.8848607028724879,0.7962220640809932,0.6940586854765494,0.5890523767518907,0.4912701879286181,0.5287212807345747,0.6466282833212893,0.7667757497952246,0.8863195340252545,0.9697327406819573,0.9319895338179608,0.8458502615847379,0.8119618411809948,0.8023548008853845,0.7683432179283338,0.7250948791733127,0.6962926472016506,0.7272370565477377,0.7639551211921094,0.7572667528031465,0.7652942808397922,0.7834786355446051,0.7820168808032366,0.7564879377440952,0.762450493397369,0.7568804282558705,0.7591695489940196,0.7436633121094212,0.7074139987445709,0.6775399948052345,0.6546021883643838,0.6756656589038768,0.7127157256573966,0.7380340735498265,0.7567625156784609,0.7831375307709267,0.7930408661789774,0.8262514574309376,0.8794113966436831,0.8679959562570545,0.7781351857235315,0.6779168109183527,0.5718557201192338,0.4658531328013549,0.41470784431033797,0.4845749661898511,0.5817529871613196,0.6998389134926963,0.8052190047728578,0.8981433571186104,0.8823789652648508,0.8205815237251382,0.8159863892134265,0.8048324971148424,0.7652763182446849,0.7093934315639698,0.6845156952330367,0.7225170375512255,0.766752830033965,0.7729755043444362,0.7674005444137522,0.7665058227631021,0.7473015807121937,0.7077935892114242,0.7066471594054895,0.7054784589607466,0.7036174529168893,0.7098763022356089,0.6630980260406059,0.6182534594454925,0.6238546428509508,0.6599261951326576,0.7103632889865015,0.7434199639807915,0.7525671375741507,0.7451242614105089,0.6666196238369131,0.54719533991172,0.4271731279562667,0.3156039673818993,0.2060423836867331,0.0886194513728662,0.0,0.006455101482154113,0.10002709196985604,0.19747153106939352,0.2853678222625273,0.4005631262288865,0.5102630556325156,0.6184456029936332,0.7220494278412612,0.7759034324659271,0.7434916224429142,0.7255376350546463,0.7109222936472229,0.6884937700253744,0.6706551247640014,0.6368880763797256,0.5990865888102626,0.5883287494186997,0.6150812762056329,0.6444965285339679,0.6874229050345422,0.6911423692007186,0.692907262401985,0.7007891713229664,0.7083592608324071,0.7331048313787409,0.7195111018925991,0.7022266717282615,0.6993385438385471,0.6676344062273278,0.6260821141856954,0.6389647962001881,0.6731305552415185,0.7199024771584979,0.7551770125826011,0.7552323155509866,0.7398296739739463,0.6650654850733044,0.5458237243136885,0.4291210413766025,0.3235791184837895,0.21168606334617607,0.1321707209464229,0.17069806853279654,0.27430969013347584,0.3846976780745743,0.4941728764062061,0.601461425614354,0.7043139430039389,0.7758421633793402,0.7408619890316475,0.7371878138454875,0.7399530406012116,0.7379969683569203,0.7125227235513245,0.6802579831534432,0.6559980699449453,0.6335089290775833,0.6504984454140641,0.7034772489953114,0.7239839224333111,0.7283465643846171,0.7340161111928478,0.7287219177719226,0.7336210238806737,0.739861995457185,0.74088024411054,0.7477585317461197,0.7491322682908423,0.7199490184785367,0.6845324347492925,0.6846981485175871,0.7124571590592592,0.7624682098368352,0.7912748956759525,0.8024305244033028,0.7816667554475139,0.6728330679539138,0.5527193753808001,0.4332079736815149,0.3261090464501573,0.21524501935790008,0.12580023007656793,0.12111913838221965,0.19454252097838287,0.2895149435904041,0.39776021422920094,0.5090099466458406,0.6149161576379321,0.7207311146548219,0.8162434104622753,0.8262895666183452,0.8095783509795296,0.796848463640798,0.7661897388284644,0.7303846992653659,0.6968065083314731,0.6680151500846239,0.6264817241763225,0.609464297021781,0.636037065946641,0.6604558521453687,0.6846410691186127,0.6849789219377223,0.689147095392153,0.6973245466123528,0.7049178237487399,0.7040231113480573,0.7008177639864028,0.694515897844751,0.6556140813787796,0.6160848850948106,No
4,0.5609629239653442,0.5307888017413918,0.5240242732741489,0.6213778958673544,0.7193566964256535,0.7577795127607052,0.6618732080835219,0.5213593655814677,0.3644077997141606,0.3026104929641109,0.4041552561573392,0.4418239367758847,0.4047156668449503,0.4331041018709909,0.4794362851719276,0.412690395846874,0.38301414245270937,0.4104444478534948,0.4128921234454337,0.4018686362243029,0.4160823746334792,0.4279345634317959,0.483624472541421,0.5040868369139595,0.4826954711363332,0.4549791224891697,0.43961873763690384,0.4551969685697834,0.5023666864991165,0.4566101655344319,0.4648461968089066,0.4766979071500312,0.4749426352199961,0.4560990234694504,0.4470318077576456,0.4223369863881512,0.4945141155295394,0.6173506226610792,0.7137992992628028,0.7105127509158509,0.5908330535437463,0.4422049514737747,0.3288105183677281,0.4034910564536132,0.4898475157891511,0.5353605664720869,0.5340053390107782,0.5128527219861958,0.4835145564744297,0.4908652389499926,0.5332595101534849,0.5699141503248413,0.5631284927302191,0.60747097726449,0.6332072974083456,0.6861631495440506,0.6892707509366236,0.622038230062584,0.6272436509972215,0.6291330294722144,0.6596749280524152,0.6869578385951538,0.673882489145492,0.6279650174182123,0.6440360826123941,0.6468279263157433,0.6626729085777558,0.7237744967370867,0.8250580702337098,0.9572534613477596,0.9482937844618567,0.8338789706825596,0.722377207035616,0.6067230434365456,0.6303670320772801,0.732992436537395,0.7887633902647728,0.8161160280287421,0.8486269733921291,0.7803818368128219,0.7372962488176569,0.716251290753009,0.6984464613886496,0.6764108971461678,0.6769453064725459,0.7172883508596755,0.7710060453114709,0.7399690830026655,0.7195324374865173,0.669227899522058,0.6180454393369441,0.6824101833537286,0.7334583635767409,0.6971231597195651,0.6692231966646807,0.671442046541693,0.7575173929742363,0.7890950544140765,0.7888557280642905,0.7965410042709538,0.8046565280006988,0.9093238916274888,1.0,0.9317078182025263,0.7953537391829809,0.6828239086433152,0.7531802514941139,0.8551861407970378,0.8875340241744151,0.8803679456408746,0.8677019734778124,0.8219594818040576,0.7614525767985869,0.7663494257594241,0.8006962886056597,0.7810698972110162,0.766302849439505,0.7727907839022174,0.7272882325285295,0.6891265247365164,0.6429354121574019,0.650012369949704,0.7564880381923498,0.8789661622411167,0.8802792990768441,0.7788884080243621,0.6577290806673686,0.5478686507977306,0.5210749738155265,0.5161014069930596,0.5490644184722866,0.6053584264562604,0.5992410673256394,0.6313644561580949,0.6268211689567621,0.6430253588675665,0.6349046382745511,0.6475499551284338,0.6808605703549464,0.7476752630139956,0.7687645791948556,0.7536239320049392,0.6442481849256083,0.4942681257706303,0.3459166404669887,0.26561076746139545,0.3637848530726746,0.5128841783886591,0.6472538914342678,0.7535694976863114,0.7060313365636537,0.6321458085843688,0.646980652978181,0.6388229764783055,0.6702577696820748,0.5985706246463165,0.5398199931630092,0.5428843203379063,0.5785416072784217,0.5756486030588324,0.5170410743693985,0.5223964755187334,0.5866639570557464,0.6216129400753152,0.6104389021908531,0.548689431284223,0.5337646929503626,0.5246528078884047,0.561255515257046,0.568852736391043,0.6015554714524907,0.6496011923650293,0.6873620881164149,0.6559456999782798,0.6056122386635918,0.4773281380319787,0.35503194869314303,0.34104097630196684,0.4683093891076498,0.5934155213257251,0.6892688922817145,0.6783472518005587,0.5600799013734337,0.5406107420986261,0.5387487534926443,0.5108465333494799,0.5390701421083133,0.5155656677772402,0.4991502958499616,0.5063121021056416,0.5418639028492329,0.5201661221367333,0.5019504298557775,0.4663456373405337,0.5186419579698605,0.5134771524446196,0.5255837488162634,0.4675479775064755,0.4435176549192912,0.4012989189684344,0.43306699090283374,0.4127882461646033,0.3844140459553112,0.3526617863043162,0.395202458088944,0.4213717267658108,0.4250556714341638,0.3787287967619983,0.27230291808674245,0.12282911988241894,0.0031020051118799685,0.05462389630972631,0.19431498458869445,0.32983351861100285,0.4829789471597827,0.5833491715723129,0.4908150104003317,0.3669350758423908,0.29578619045842025,0.2877211444112637,0.3255458590179998,0.3308503452976712,0.3363077642154835,0.3570928062029717,0.314341963255651,0.3511367874987599,0.3005921789388548,0.2551973625859887,0.30917625379935565,0.3150899125024233,0.3353543292406087,0.3704141727913948,0.34669690847024714,0.305168019741334,0.2840148082153462,0.2656858798533923,0.2671457984020167,0.26621700863668085,0.2677428256516672,0.2592949436652221,0.3412159164414019,0.31485427743313554,0.2892677538670334,0.28231762868854204,0.17407353488348146,0.0401741126641717,0.0,0.11030650346759964,0.25550941082703904,0.405563321700912,0.5273178528511888,0.4856141460936536,0.3874153779948529,0.3896837703163927,0.42395465986989134,No
5,0.7248364596909158,0.7360384802969541,0.7560994067472722,0.8012174489646839,0.8221721169207261,0.83605164106896,0.850597623244552,0.8369911729316506,0.8412011821069396,0.8740996988633398,0.906109788655174,0.9086520383824052,0.8857890990277809,0.8585986319314451,0.8340159694969889,0.7816068303938701,0.7104847876041727,0.6330497313250651,0.5532314084362855,0.463660903799882,0.3729841225007395,0.29225504424308196,0.338510573756498,0.4376905792539878,0.5284431251753707,0.6269481560485226,0.7180684927300209,0.8036986490302573,0.8547400006701209,0.8560479915056027,0.8606784686723543,0.8245857469470343,0.7921851674182006,0.7973613490377205,0.8549241563480319,0.9025188507636082,0.9037884242495896,0.8985115250937303,0.8762955696696615,0.8723252343456016,0.8664783447301261,0.8644925707995719,0.8778968763112318,0.8822893388304198,0.8956714195225192,0.9380945306405616,0.976066939569694,0.9900082840422728,0.9733603339651721,0.9539527481255164,0.9259325398906632,0.8888039715442289,0.8302420216726416,0.7471505973220665,0.6685129574839057,0.5834403941555797,0.4944182207954797,0.4131270286993241,0.43418143143593735,0.5218400787571076,0.6215779036469087,0.7167681205993177,0.8072989265369591,0.8848246530039351,0.9074639757598444,0.9322414434031008,0.962339586982242,0.9353536123899141,0.8780330922651096,0.8231894549937846,0.8162335790254489,0.8621005613441706,0.8879589325537398,0.8883339650044739,0.8857441662029077,0.8947605187634489,0.8931196844297542,0.8786379442690748,0.8714745239880832,0.8690227222023671,0.8712411615760489,0.8574903768188071,0.8735130663301547,0.9089437547639759,0.947866760305391,0.9622301392945692,0.9724620519732632,0.9744534412684392,0.9659778232270452,0.92562019761912,0.8622836593921535,0.7798839854549895,0.6944892124005428,0.6086228591443108,0.5188058654280447,0.4354514113403809,0.4452985920679793,0.5426673042632215,0.6403279864012998,0.7319325149733591,0.8303565822681058,0.9194633139843617,0.9898246116412176,1.0,0.9872144488120048,0.9625050704291582,0.9199915865238836,0.8629836941917204,0.833233160599554,0.8672208581820455,0.87564597866661,0.867310593475962,0.8620746473587544,0.8529663025023111,0.8367487271052703,0.8276097905693613,0.8197710297438214,0.8100386694687596,0.8150315093282847,0.8200792628269484,0.8051995207609459,0.7724089498113327,0.7548162700384187,0.7539426604860107,0.7692163370056813,0.7797301321742021,0.7935237156143877,0.8018730574484918,0.8142154064649869,0.8221200569828508,0.8301766770568141,0.8076283429026421,0.7735433846781583,0.7803445409618757,0.8395188972167601,0.8948148168325365,0.930727133413178,0.9455179569630978,0.9112168758492784,0.8205228483196909,0.7282677476126329,0.6303303378072309,0.5391891892265299,0.4386713746553479,0.3435072787318572,0.25031702022253866,0.1660823354808567,0.16067221759620345,0.2423658148930825,0.3326920880861601,0.4266432437534897,0.5192853727820723,0.618191589827473,0.7034409855183186,0.7844017137035455,0.8576790349086152,0.9153760785083924,0.9308649710286678,0.9145940164770638,0.8992959032253691,0.867895034612038,0.8336274800094641,0.8104104987492446,0.8133934905277158,0.8238605845327571,0.8207629514573123,0.8251081783183873,0.826805956562636,0.8355620296746964,0.8347313418592863,0.840524666253573,0.8357993472833312,0.8070904831495359,0.7599186831981011,0.7285795749593214,0.7671615267222873,0.8298497700597741,0.8788439038595186,0.8873593292777344,0.8562311426432543,0.8386686705147977,0.7625624080122582,0.6632238964984913,0.5616919871311072,0.4640114669108688,0.3724106205800386,0.2722862001922011,0.18133431122166144,0.10265969281077923,0.1114048782323256,0.1931039687897358,0.28406455679697395,0.37494584287622135,0.4655103821344904,0.5562021523110889,0.6514227450674652,0.7298373404172547,0.8037851304256356,0.8558834226433834,0.8920864855417339,0.9159899087123322,0.9402081578487199,0.9301295346818712,0.8903261695072198,0.8523332672418147,0.8289356360233078,0.8166677056956013,0.8126029385550826,0.8127103865988703,0.8179304737065527,0.819695984997852,0.8363218367337231,0.8521155762165553,0.8406615835735911,0.7866649882445937,0.7304874296224013,0.7163592636408103,0.7553587820144969,0.7971362089885026,0.8088408258849138,0.7900183884629608,0.7388413551747544,0.6476561981712714,0.5537666360501983,0.4529880832894309,0.36110705925009795,0.26379266709259186,0.1642007426332026,0.07420984811740627,0.0,0.02187058425492561,0.11165302134640176,0.20211608052073385,0.29421388043744945,0.38333820740868,0.4735361368486024,0.5583774064179656,0.6386636553677225,0.7167340083391913,0.7804160037207315,0.8112236292900481,0.8333399157255532,0.8592191026101634,0.8555944359055165,0.8243139682432585,0.7890561329569397,0.7795954412294264,0.7882525568228699,0.7941847928137276,0.7847372186696853,0.7644861966162408,0.7297518584694869,0.6906309709397314,0.6803542530773843,0.6746339158772585,No
6,0.7884425890189597,0.8175225200266114,0.8473141195247584,0.8519875146675076,0.8540771382557497,0.904703210631936,0.8748890973338876,0.7898655087846018,0.7030083961673088,0.5821195961744263,0.5335667879323376,0.639910006451311,0.7598449237007179,0.8818124192796635,0.9674727228127856,0.9908078578120688,0.9163256085200464,0.8540114430783934,0.8082006451453623,0.7602389334365376,0.7545390243607373,0.7894775988733924,0.794297583896828,0.7623833996801772,0.7228731509935122,0.7179573405946691,0.7263382821720503,0.7513874079829432,0.7324423631273507,0.6889473624678941,0.7341552484079914,0.7721282275413741,0.7909424689065561,0.8491741861910023,0.8906060733982613,0.9286313067064912,0.9485749559703248,0.9450623018666136,0.8959289621663098,0.8298456227565691,0.7533324259714513,0.6819728891004928,0.6181963383203629,0.6158763361820023,0.6396285603737241,0.6660143733428718,0.6740619588834978,0.6816326089416402,0.6804481131506743,0.6734114505530031,0.646142642846228,0.5680064761660253,0.478354392936073,0.3620148802057126,0.27924669305345473,0.3480149136281105,0.4678291898677385,0.5894668466336781,0.712414779147998,0.8195211229864743,0.8352255496720975,0.7841887221138473,0.7269714314180655,0.668243865324599,0.6893990576746427,0.7540854881386458,0.8070872930617812,0.8181318777945221,0.8461616348594116,0.8838350677628237,0.9337889578422796,0.9603509007293116,0.9742916582258035,0.9470159011973168,0.9187166732128564,0.8905981600799651,0.8578784452383199,0.8528896125585423,0.8519324214203771,0.8769054427938587,0.9009722560291222,0.9191206618974044,0.8773608388072418,0.8146154562120125,0.7538704559785518,0.6837150987611476,0.6748077132031159,0.7085789381319567,0.7531857451757644,0.7629553899878325,0.7686066576637565,0.7614785447638037,0.7322813191202551,0.6884261318591571,0.6115173061215593,0.4983809696461927,0.3848224979338841,0.399762151561502,0.520184501235903,0.6400357304337003,0.7632424700281706,0.8802241238963728,0.9659009818171946,0.941069580715777,0.8992592470366683,0.8693078193854626,0.8742175052838963,0.9429172571420472,0.9999999999999996,0.9987895748343404,0.9654540424528468,0.9089693563218376,0.8478923461959029,0.7871106006221473,0.7351641743101474,0.6643117575521895,0.5902180133256927,0.5535550865358538,0.5463511372377909,0.482245421140576,0.3847955750373164,0.2580989735878543,0.19567149420526556,0.227368647374802,0.34486951001374866,0.4482381509378408,0.4705808615108893,0.3602566904486415,0.2368375586573457,0.18540994140293288,0.19241556727344825,0.278278520676825,0.41046847725656704,0.5240471185375104,0.5933204170137434,0.668300550378063,0.7076853502076852,0.7692444728806542,0.8365650874591326,0.8922492818166767,0.9174660766630268,0.8801185349074228,0.8160040179778809,0.7805478928673404,0.8046920127871635,0.815965719424057,0.7783779013950372,0.6806347548699616,0.5871627802510546,0.4979900196805875,0.3804899914971167,0.2642189950995548,0.16875908258820305,0.0841675352280018,0.09486973167582002,0.20400461082617216,0.3333323688778034,0.4611750857181756,0.5633384933040793,0.6263952926358294,0.6572583155072564,0.6649380330194252,0.6818974016989934,0.6800468537989461,0.636128710620965,0.5922733125786817,0.5864899116546396,0.6304197981376647,0.6891927740719059,0.7653956771392543,0.8131578156756043,0.81832820792529,0.7849730612125958,0.781882177225695,0.772401970868116,0.7661177018842134,0.8055090696365541,0.8384881366867325,0.8755292945327278,0.8792604547547445,0.8565995192047762,0.8285068890428748,0.7829657824727132,0.7510510113154178,0.7240790836285274,0.7008493611037507,0.6355421033449695,0.5816384398920902,0.5865627516246898,0.6520512875813451,0.7076583703738875,0.6960532655188247,0.5813304749591666,0.4573017012117857,0.3349018641135779,0.21511199290317728,0.0925530397955412,0.0,0.027057828031461284,0.13482221960409554,0.2527198460898208,0.3729128223760432,0.4833639601615322,0.5703693851297076,0.601939462854292,0.6003399027837837,0.5923892347733101,0.5929461492629136,0.5784062251411317,0.5639446426791186,0.5198387028040052,0.5386693824677713,0.6040855952183697,0.6768786649079019,0.7521098680955136,0.8231880893483394,0.8682329802458991,0.8694282105957547,0.8446565631508629,0.8019078826399171,0.7341196580165477,0.7053411391859108,0.6628521573200771,0.6019737460620367,0.6148845172110584,0.6598564764395523,0.6450808231572975,0.6453921563672465,0.6419111427036022,0.6538517707653377,0.6929918006586409,0.707937072611593,0.6958958661765959,0.6621997094641867,0.6809994232883327,0.7494444099940636,0.7994156541283202,0.8261273423439115,0.7325761268424764,0.6118261264500315,0.4914914722347956,0.3759195541558653,0.2637618027868487,0.21997200600040667,0.3091345305940476,0.4259486934228303,0.5454076788942137,0.6631210090293251,0.7533119634255292,0.8108675129954754,0.7891193854645469,0.7800936974631116,0.7654791916309955,0.7325397651006931,0.6948535634799398,No
7,0.15217413115300404,0.1677361228024803,0.1824455727037297,0.18744137571476616,0.19963129146627925,0.17383560147020827,0.16798422913376498,0.1639062647125442,0.1633735965902603,0.15733025864283112,0.17084365487855235,0.18426536208561475,0.20006733742329572,0.1990733950371122,0.2028627208570235,0.2646385188169318,0.3519340025579978,0.44365517649123604,0.544703394528038,0.6462701894721148,0.7520740633466336,0.862609146598563,0.9639464401586592,0.9999999999999996,0.911917780021818,0.8005957072403169,0.6963773955555297,0.5821734141288855,0.4870999547204034,0.3878612442942631,0.28742074977496523,0.24116422258208114,0.26560022444827425,0.2708897977814715,0.2491298722752009,0.2234125490429517,0.18390664754383132,0.19882702791268647,0.2118424475982814,0.2091541949554081,0.1870093695756294,0.1806740459672076,0.1714631431738236,0.164243923971517,0.17054639943451155,0.17528153411700842,0.18836374275716805,0.19068756616843485,0.20186327924745304,0.18058552815632375,0.18182204843852867,0.20397446133570216,0.20962658155117356,0.18644983876243293,0.1849802265662146,0.17325500654245385,0.17521464548574614,0.17966256192628238,0.1645730645597583,0.19814830952402707,0.2847649657427751,0.3799135721808127,0.4817321469540104,0.5925132307848751,0.6965625067883598,0.8108439513917038,0.8926646687265571,0.8789497637748354,0.7852796354244469,0.6725405571036749,0.5696688063889512,0.4563687034741864,0.354062584512612,0.2495367744182464,0.1873214520923128,0.1857501532461434,0.204782164816236,0.1898481767609268,0.15391727094052987,0.10791457582941087,0.12623132867642586,0.14810396085612787,0.15885728000607235,0.1586442951041218,0.15717525852673742,0.15653277509519906,0.13579055617565672,0.14075937791208393,0.14319841133471026,0.14844877913219134,0.15907813141605498,0.14122760238598794,0.13629722851889525,0.13868063828578858,0.1460246304529047,0.16706931944327952,0.16151695713029746,0.13380652534622905,0.1310939160940232,0.12745704765023635,0.10568659852737827,0.12332312692837233,0.16154750044627694,0.2372204303347143,0.3233571528598169,0.4279722363805778,0.5325885537375319,0.6435115046918032,0.7553615521900401,0.8587854489697437,0.9419646545368194,0.8968873952651459,0.7927600036970133,0.6838800868291539,0.5732024308329229,0.4775835014202663,0.3741558616837266,0.27258752378196194,0.1915117748392139,0.19068713311560612,0.1999225768295876,0.1892586675710541,0.14474203353415938,0.13606766432934106,0.162860616338393,0.17148450122106684,0.17118167885497515,0.16174717781560766,0.15942500560348893,0.13501637858320634,0.1405200035089096,0.15684933805934784,0.17044874684108668,0.15476755694504796,0.1523317116360201,0.15580455949942973,0.10571632671509336,0.06951534569283879,0.0834039567551641,0.08826351180665526,0.08153498284426773,0.06752783629896886,0.07579139344102304,0.08575335472591306,0.08802795860346667,0.09740430583038684,0.10168867013672367,0.08113616763309972,0.06823573711599584,0.07354054504863017,0.10831959227565324,0.122514587708054,0.09999210032542603,0.022025073002139628,0.0,0.07207170148844487,0.17036829861930558,0.27771624050393884,0.3779084662690795,0.40310188482768217,0.31095843113640464,0.2233957054548892,0.14188039398261498,0.07963287547086706,0.04977755903526182,0.02627794806977324,0.050900986357099935,0.0514814927480165,0.06163002951784824,0.06553556851963105,0.08483322243209067,0.0771399895374949,0.05832732811451712,0.05500123349039043,0.06281890942987234,0.07108934332268291,0.07303862179435461,0.05796993736025114,0.05527350922792973,0.06383092555134251,0.07904088044956259,0.07768975676210621,0.08567970833112692,0.08393913092973326,0.07437260431089854,0.04493196707633373,0.03429430974203429,0.07843525680041853,0.11678978747347203,0.1311656692730776,0.09924625525475506,0.054158525522935534,0.08674484405549521,0.1905656450384643,0.2926114682371246,0.3862468463358022,0.4651865498821461,0.4851891603058842,0.3899747231807962,0.29225289291171075,0.202883338813856,0.12913003846474558,0.09358703087753373,0.09293748465297512,0.11023991565224288,0.1089177324731887,0.10897521729883984,0.1165539456910274,0.12074193899823715,0.13492276390255276,0.12410540172757177,0.1109982288395921,0.1104340843293068,0.108742501370084,0.10831602155316887,0.10977340160324013,0.1041032123572232,0.10278950805420628,0.10564224934130273,0.10941551910808878,0.11948367875418242,0.1275207569728094,0.14616868823878715,0.15651642346252004,0.12277289874105568,0.10539702278551744,0.13823958852944207,0.17313333388922825,0.19609666260428016,0.17800638798100898,0.09976324457190122,0.07890871667589039,0.14833160958433922,0.2503183097618913,0.35279336228665503,0.4531894220416173,0.4630270385546536,0.3729486156059898,0.2841854240914881,0.20173089907586395,0.14602957866402022,0.12393975198258778,0.12285923184410975,0.11343885612088254,0.10269973663350518,0.0931522546917325,0.09557311475563823,0.09150414319337097,0.09809747953930126,0.1125329190976121,0.11208726503791457,0.12121732118500585,0.10893310911609656,0.0973385020148596,0.06808513532078386,No
8,0.11460725425211304,0.12857436524669996,0.16906206394548914,0.2303047017436226,0.3644636869681994,0.5336400283335445,0.7058900206811964,0.8660638686476849,0.9716850751679972,0.9169348885389564,0.7723446522153985,0.612018757604111,0.46272289958738,0.3164428605335994,0.21489862137664065,0.1863483878026804,0.20869352013115167,0.1633068910039226,0.09427106964237986,0.10577929907879112,0.1445995022617863,0.14684795428074526,0.12334758239958975,0.10663398559631787,0.08265893046588513,0.10000548006501564,0.13750645693381536,0.178417825009193,0.2143124257221647,0.30786209882889715,0.369136118420764,0.3482788710390041,0.31581535701764096,0.2654533864928457,0.24928496390931,0.2492221547610747,0.2577510321778096,0.2784982672163112,0.25375146393299897,0.23113086735262026,0.23512203728208725,0.22212601553245914,0.2389908209470999,0.2482348626172932,0.3157219567536025,0.4578027473581488,0.6191900955532512,0.7672929348212705,0.8746146601481035,0.8105845765438788,0.6485082319738087,0.4810322932445725,0.3532229130168085,0.2944007044940964,0.2610717270533573,0.2743316408357295,0.232004199774547,0.20499850777789685,0.21749210053827905,0.24538384177818615,0.22203862928888984,0.21556815501409327,0.22440027631674744,0.2478851979516685,0.2546352088913135,0.2860586374861569,0.3101180861885302,0.28615594428712754,0.2673976131185176,0.233522210824634,0.21604599373744549,0.23976278344243074,0.28121473740787195,0.2828626914872299,0.2828629339677509,0.2822642360359868,0.26495453734130514,0.2918525136603716,0.3097750001528761,0.31197115839944445,0.3325784510522283,0.4432194282120774,0.6029756686694006,0.7638446419341038,0.9110232551643076,1.0,0.907493515482833,0.7608915634904516,0.6260316074662828,0.5122373515615175,0.39830971543606253,0.339689033890922,0.3474184745140736,0.3618826268666169,0.29291149192389376,0.24231773515324484,0.2426107708402503,0.3006442637250695,0.2973374323473852,0.2636640538220512,0.2494229864663948,0.2612850890180907,0.2857051415230849,0.3130230888508194,0.33707458569017223,0.3489169342482477,0.3260642180384181,0.3151242305600723,0.29057706445470544,0.2688693242658564,0.272130254488272,0.25397141491673736,0.27275252715781484,0.28021014136631983,0.2816175656173661,0.258395311145855,0.24919938590917656,0.24104963561864426,0.2240007014550436,0.271930575739737,0.3853828899528935,0.5510831047026343,0.697514867564581,0.8608777586185159,0.9692285586310092,0.91872505479643,0.7776023000303507,0.6173693906939981,0.4720104042363174,0.3337556718655952,0.27378139911604915,0.27659987444026424,0.30482839461042754,0.2463154209817482,0.2023444272266781,0.1943679972074728,0.21010732122412268,0.18472589410355236,0.17526828904122027,0.12553971153540378,0.10062712438870493,0.08574355975787107,0.0922410410651784,0.046116297319090734,0.05691783163229225,0.1070234099118279,0.17551755409052114,0.16969957151432435,0.16019806437777895,0.17679756264140511,0.2691767224820856,0.3955844175915049,0.38096204822427016,0.25546812156406595,0.1703349050161327,0.1222950222450967,0.11937101584718325,0.15271771240268794,0.16816909599171925,0.16837053230288035,0.16828148555160286,0.1559566159100232,0.137475503273623,0.15405360696304893,0.14331520611479576,0.18988705923217356,0.2033788762149369,0.2271539889999996,0.23560113305695565,0.22353152022935774,0.1898837036759451,0.16840183332228076,0.14784514471502866,0.14115982240660596,0.16620408180391966,0.17478581266344673,0.1708149958230658,0.12579071043326628,0.12487990233681767,0.1721934741548612,0.2218058414703856,0.2121740935242391,0.2322009035578301,0.2855756298198635,0.29709688984743643,0.16321853452371293,0.11402451620789122,0.1722225027615698,0.17721921019208953,0.18509542160187653,0.16883145380959075,0.16848710574341652,0.17863611966440818,0.18018398034737795,0.1764397278363541,0.1527452753759917,0.10607427815236736,0.1174845960971016,0.1454420179688256,0.16763482464966462,0.18053214160305053,0.18448144083719956,0.16574022078006578,0.14120654692732335,0.14884106220523294,0.13134593737567002,0.1057919249589352,0.12453196114555798,0.13379435893475564,0.11205515560536572,0.10164956124631086,0.12574138391373602,0.1650192965672268,0.16842869759845858,0.1816065837523242,0.2611469383536571,0.27412285480822,0.15777781019909476,0.11716503286048052,0.1312572440829154,0.10762599040964373,0.12796050791214153,0.13555546165174806,0.1575599241119292,0.16830464812501233,0.1683705323035536,0.16837053230356513,0.16840513887223807,0.1785391510915808,0.2294043279526594,0.25753901419574105,0.19518653516914689,0.1133600789334066,0.06856214691069251,0.03758612038800901,0.0058345432499704595,1.2961440756242835e-05,0.0,0.0020616684257817037,0.0326591189498302,0.059682781974917276,0.015869291959245583,0.0005739181174329032,0.027561440845292214,0.07645091683657501,0.07365565634501525,0.07534880617485218,0.08083949423606462,0.15303178484930147,0.2546615835179331,0.21396873219112766,0.10077471253595682,0.06188861614067065,0.03603460371513911,0.03367467496701071,No
9,0.9026394374027342,0.9066682285700942,0.9337710326102996,0.9266983160752548,0.9371140850840868,0.9073822209182358,0.9108997987968871,0.9091726341731494,0.9083050664163546,0.8619058765112761,0.7947800468312822,0.7242839821403589,0.6484257828862754,0.5938599930337798,0.6438983511558183,0.7342411421463995,0.8045281253069865,0.8523615537174098,0.8811523279124343,0.9060660331410632,0.9049893975544192,0.9090762686722912,0.9086119069621486,0.9030354596128928,0.9280159721512868,0.9089805510716849,0.7879760014007324,0.6655665074096824,0.6821753084677837,0.803948914676619,0.9362896200999016,0.999572051287057,1.0,0.9831312747488604,0.9816559551112816,0.9677344340899952,0.9325837998108106,0.9104879662393222,0.9205808157941932,0.930967771353732,0.9523070328438026,0.9714121816692662,0.9356802893590784,0.9255378780609416,0.934461053903755,0.9147854104460702,0.9189845424119856,0.9087295995862492,0.9201954785840928,0.916694866431312,0.9116995030889914,0.9158708561384534,0.917922805310595,0.9173341152485824,0.9086373858212298,0.9078674582191048,0.8967301386664639,0.8701911765623516,0.7961211258522276,0.7168856653342788,0.6312181267883821,0.5828817864727664,0.6446169962465227,0.7221428024053038,0.7796639811315522,0.8587967802362142,0.8986974142525428,0.8744060592031424,0.9009051032641864,0.9138181260157144,0.8981747262418436,0.9133276719400428,0.9066547731450924,0.8316838278519656,0.7287750862708497,0.5991680182684265,0.5330556217339772,0.6509974798929576,0.7695774771753694,0.8881002279737801,0.9479311464939376,0.9720107795754576,0.965900303205653,0.9667928961993396,0.9874831042453628,0.9794260624767732,0.9093898036134522,0.902328021621626,0.9328264328140145,0.9232646263548424,0.8950817944214915,0.9115446036904222,0.9057229896333876,0.8850877318544529,0.8478158736196493,0.8480554352126237,0.8391744156407626,0.8042480837494885,0.7856127279869698,0.7561173268495613,0.766558576601855,0.7671961455788665,0.7606331006430516,0.7638164591581758,0.7584520758204878,0.7602081012270201,0.7169369565480368,0.6369614027136965,0.5472161509760243,0.5015459940608551,0.5557900189018019,0.6334544524197359,0.713998158698729,0.7774103112430994,0.7988723801884339,0.8199683455904285,0.8187462951266022,0.809611290274062,0.8323305394211378,0.8471664896814923,0.7760283711263822,0.6748373272378947,0.5392016797423702,0.3969186265226936,0.29065241520164964,0.2030321338980228,0.09952941982087983,0.001105137700415426,0.0,0.08836216488487557,0.2503381227963226,0.4152274462471873,0.536829241205786,0.6216516424002023,0.7030771461541905,0.7014946315015251,0.684652920742864,0.6941232638794048,0.6800383625523105,0.6817804716398879,0.6522962389765361,0.5682271415065321,0.5001197787850593,0.42999156215711576,0.3684788743670335,0.3797783991785337,0.4550010714638928,0.5495308326929509,0.6302900723381235,0.6633131447536886,0.6536137150591816,0.6341989605869003,0.6447838702603716,0.6518091945701574,0.6373094082901032,0.6692753121295096,0.6534914714319671,0.6994391912031714,0.7231764153090721,0.7077075241400266,0.7328302831138052,0.7733610262916395,0.7771991604868429,0.7824482807383291,0.7655898579689673,0.7736650721615685,0.785877543574677,0.7862750585264839,0.7980487318760767,0.8483870153166757,0.8598468214903932,0.8568786277645852,0.8466400862345136,0.8049706810281307,0.6863236865695592,0.5722651910840018,0.4423808660714945,0.3169040744668461,0.3009747805760714,0.3951843200033407,0.5255158209281294,0.6574506407679852,0.7342772716969117,0.7437085440973892,0.7606547758946034,0.7785707302912934,0.7648437168695956,0.7672973544977282,0.7500485129270924,0.6738232152152257,0.6346776375874805,0.5421010639580386,0.4377148752410598,0.4118510497084849,0.469381199307417,0.5640336613729051,0.6500062275357879,0.7280806735057608,0.7878839373549509,0.796855059747597,0.7797707242705378,0.7632773536623114,0.7849640049220009,0.8042844089827605,0.7938856643479193,0.8100908313506165,0.8144136537803428,0.7988862598563866,0.7999972789385374,0.8124170566306121,0.8047642346650967,0.8030895793048547,0.8016477824534941,0.7992856949529834,0.8211062875580417,0.8263423830387557,0.8275851199331496,0.808034859907619,0.7748348385150257,0.7985992627952639,0.8440442901517748,0.8653276608600855,0.8697902359967316,0.8373896248127295,0.7704298274590355,0.6510557081889337,0.5540274384314223,0.44751122665343424,0.4704020038534171,0.5711147966205781,0.6970136754913385,0.7757019249964667,0.7870007544434863,0.7505464432633095,0.7482272054368764,0.778861037858265,0.7971990523709422,0.7697321594734188,0.7595393299710498,0.6953680951321086,0.6099285721842289,0.5223742681385888,0.4835160972513997,0.4669992275525141,0.5399628505566332,0.6180538557465649,0.6913792402730774,0.7641874036753951,0.7852888012051347,0.7696529827600562,0.7833355734274665,0.8026287165684716,0.8151768060492675,0.7933173002414717,0.7862329953527372,No
10,0.7020169945664279,0.6183205337792597,0.5661276716945611,0.5331095362484248,0.4699868913979213,0.33934118755280984,0.2985662980181072,0.35248236950420697,0.4532183980236866,0.5209899195079863,0.4885597801273746,0.4746514172760374,0.471881094001624,0.4678930875917526,0.4367465497796417,0.4179233987669004,0.4185691817973005,0.38912921987607696,0.3777331227813523,0.3415063561213305,0.3581782572485146,0.387015916494466,0.4131186642388016,0.4204919335329187,0.4286692319327568,0.4592408375241295,0.4696919056033444,0.5298429471136359,0.6042672265042448,0.6224077750417631,0.6088747487887378,0.614034999405046,0.5997295966446767,0.5825390842604783,0.5725906286591496,0.5359872326175381,0.5027823483672442,0.4780557613152254,0.4993410015989674,0.4820580750654901,0.6015998815084291,0.6656422118746157,0.5808218477499434,0.5699075181755937,0.5480171146941739,0.4715290077472307,0.3860147795197584,0.3473633264950333,0.4472167085429693,0.5147306564327856,0.5983564604343812,0.6005072049232467,0.5477132624409826,0.6052506718656545,0.6167260597648951,0.5889015453354496,0.5010042806890329,0.512468968405404,0.4925375818550037,0.4672867388134154,0.478674455653934,0.4843663399382177,0.4651129121909357,0.46209514055891,0.3762578396504992,0.37281292655139175,0.35328174244130395,0.40181838983065,0.4422272724853844,0.5198361154701914,0.5801508712525543,0.5773848262785766,0.5404583607525613,0.5639382024484689,0.5488166762658491,0.5335188152288524,0.5133009049989229,0.512640724386447,0.6738856301415836,0.8762084293033094,1.0,0.9160866895396752,0.7323538380230143,0.5706815254697446,0.5141953146574725,0.4450834616888688,0.4358764122202583,0.4099277689076963,0.3021483591826817,0.3140824333211469,0.35921057950014296,0.4175607821367784,0.5179846960600152,0.533653807036556,0.5547060437964983,0.6218645610745241,0.5924069960584859,0.6190893565626999,0.6061329241039992,0.5400412333657609,0.5298196879519832,0.4914718118999026,0.4628058803563775,0.4862496188124528,0.5257250504187745,0.4974911804322844,0.4451449814384567,0.4846764818348035,0.5161118071685921,0.5157280809561051,0.5740907777380215,0.5953588806569208,0.6226941516867779,0.6143430779368693,0.6256920628439175,0.5775809780567922,0.5364192600849513,0.5542552956516946,0.5580821399540312,0.5047149181717874,0.570415058156458,0.7559096298389409,0.9296050357124734,0.9299023579814474,0.7646956171542776,0.6379852149037806,0.6077405769672382,0.5146368062504898,0.4605056477040552,0.36495089196889374,0.3273899477812616,0.38816661021486,0.369099619010008,0.3499070047073438,0.398159429502309,0.29987378082829785,0.31991686388396623,0.3836853546912895,0.41486007443344697,0.3867280395323061,0.3927549343458541,0.4550105162870537,0.46529349174484297,0.4584870501386576,0.4202150460448948,0.3868792360717208,0.34108766195371665,0.3451720224277945,0.3239045391818696,0.2835412194115205,0.33504853033955584,0.3658596537215839,0.3234800747341051,0.2853711807132635,0.3520015109478383,0.3676950799930516,0.3746585763092547,0.4322316046912533,0.4306469571037504,0.44275797998279387,0.41214196098372813,0.3683856799024703,0.3661843482661116,0.30388732637611504,0.18477461882958668,0.1699541034587222,0.13422434394382954,0.15548963276285122,0.2557500963490256,0.25461879706687274,0.2363215444917852,0.32229628265276666,0.3295743903388875,0.3366159826234192,0.25420972979993106,0.251241199515019,0.3253238561942373,0.39597875625846335,0.3469615615689232,0.3031036223868693,0.3607297898580519,0.3371427855923468,0.37827171472875065,0.41078199084803657,0.34605089276414525,0.3097789970060392,0.22505459973692327,0.14392990675791495,0.15727905173862045,0.17205902939509787,0.14833851421741515,0.19468877043269292,0.3089996529418064,0.3048009315628617,0.24887109097242546,0.29066916518253194,0.2778384595911252,0.3100148614564304,0.2836730825364402,0.34882793504349685,0.4053129129425788,0.3755911547128328,0.4199638471834266,0.42414398957581056,0.3578680088974551,0.24468087998506416,0.1831467167859362,0.17976859021374292,0.2302423581045803,0.3268272297617649,0.3898176771837392,0.399323499827192,0.4165879585928263,0.39869445964821537,0.26877266710710845,0.08497138066480048,0.0,0.11452739645842147,0.1971717110870657,0.3160373794689564,0.3821836280424424,0.4222000386835898,0.4574919647629585,0.4344005887903197,0.4630377357517457,0.4652909800072696,0.4533851335974841,0.3806733934898752,0.3136726762043738,0.2984962054370364,0.2725198349886364,0.25050963626693523,0.26972250613375337,0.2529316473200707,0.22231748944606355,0.22144453881726367,0.2348905673794324,0.23193487530456205,0.24888687215081085,0.23910326151606046,0.2684616300365459,0.2963313358659292,0.31867254744070195,0.3189446306791712,0.32432929514689235,0.3434800162247953,0.2498068447092088,0.16497106189770872,0.13257323516135774,0.17154935375790006,0.2564467787718927,0.3639165261931385,0.4101229376243971,0.4417248127572808,0.5052265308272386,No
11,0.2543172914332832,0.2752925338596865,0.25771370312292063,0.27453708585010794,0.23467676088398104,0.2095540604586592,0.20802978408744632,0.21794112296820334,0.24230025588901416,0.24914585232125666,0.20996788992807056,0.20774447670929952,0.1718063208159215,0.15627527250151996,0.17999583967220897,0.1980933604081452,0.22203411384797,0.2502497417773055,0.2698076255164388,0.2821733674297455,0.2555262134791123,0.2629935034832309,0.31123668819399164,0.4234954547758223,0.5453929834613289,0.6545015027794543,0.767817345132741,0.7575159537212954,0.6104001462200577,0.4607475169770297,0.33955269966928103,0.34065368053528555,0.30890673567288474,0.3176691109250092,0.3380399784769121,0.2769987588247327,0.2824489648734243,0.2293297201461062,0.20415432690982893,0.2534678560228283,0.2825650689616879,0.2611704140180171,0.2530715339051124,0.2449480405478113,0.2512400585870278,0.24770267806747626,0.2412814620258521,0.236883734653075,0.2528675904773721,0.2496526992786805,0.23258110063850346,0.2446175736025449,0.2027193262185385,0.14720176380864824,0.11589446530184412,0.13788434814256245,0.17587062087005645,0.2480640796884241,0.25513332077371675,0.27893360497051845,0.2579765754632657,0.2327639914249886,0.25006288816299804,0.2887583134347853,0.3984222079868642,0.5023637941917114,0.5868838606443498,0.6964375686925903,0.674412822257942,0.5379183279347819,0.4250704964091909,0.33415845050408244,0.30372014107105993,0.32349475498873304,0.3130037190814363,0.3160503739497473,0.2575192352385089,0.1891156010069208,0.22395465487190247,0.2483595977036241,0.23574228163761024,0.281244055507317,0.26144634997950256,0.2348885173905,0.2435726355027912,0.22157786598074747,0.21701101935746347,0.21659944766537986,0.20252661433607155,0.2104378020072657,0.16322930929585944,0.12407444507177699,0.14415062854951002,0.16852195722131036,0.21319342087722148,0.242483918485072,0.2734822819012219,0.3075183351601938,0.25411953763293393,0.21967668774411295,0.2170060624173864,0.21754616753894407,0.2483573555743197,0.3291209661240826,0.4542206217943772,0.6040783672074506,0.7567019990056973,0.9255958012648929,1.0,0.8972931982584482,0.7462098659040066,0.5896579472257306,0.4519339312704558,0.29568037175162143,0.20307756440583716,0.26405500859219444,0.2601066595499581,0.2441168077303661,0.2526232304570071,0.2283539752336754,0.17782792051219065,0.16466625830776405,0.19907867532975665,0.2374648051149135,0.2217893300808376,0.2169916399808649,0.2087421608323332,0.167210720094487,0.17964870695571555,0.1785103013164253,0.17170403304886506,0.12641658484960505,0.061999572033438526,0.05788703658995775,0.05795292410564822,0.06905715685375212,0.09309336719524897,0.09491362328933306,0.11653045124172225,0.08809173729728137,0.05040565129909602,0.02573586754971391,0.06954638323252027,0.11132519099940552,0.12372876676183076,0.12902058642674866,0.10000758037288636,0.0359645191969209,0.00995010612530578,0.1263562795992641,0.27707706874592297,0.4033790261536448,0.3427733485357152,0.2490714670216017,0.1667118187307084,0.12508458785195042,0.09669918221843243,0.1009379972254818,0.10423937170838292,0.11485026355268425,0.14374928410768462,0.10881437187972587,0.07714428841137977,0.058039635180344724,0.04054211618063697,0.0,0.014300087530501491,0.06223746152335963,0.06740318705451909,0.08826984177369912,0.09400325906957008,0.08518757083690076,0.06990381470987828,0.07720251097135034,0.10828461532961507,0.11375859726561274,0.11323395329643215,0.10472636006701652,0.12135235978400427,0.09218214690685134,0.050974882053351316,0.07870589450769394,0.1575979919091246,0.16813182199695476,0.1949621345333341,0.19429585155010187,0.1163925844869782,0.07548134208588575,0.2017471043251966,0.2929726872598568,0.2970477734888908,0.2867853415837951,0.19147625469632512,0.15983300947657764,0.1097583636233974,0.12446521893130225,0.16156223948689696,0.16613978234489402,0.14677736474659042,0.07944127027333714,0.039549112763457295,0.024578551901781157,0.00578690185514219,0.011412374526135416,0.06816013300138835,0.11832420383542085,0.13111680808743742,0.1460972218480654,0.14089950860868328,0.12252109351034512,0.10535335952031843,0.12918238838864934,0.12208842692168087,0.10594079631152198,0.12934335033693145,0.1467119057374493,0.1646810770422409,0.1248053297395808,0.07239104130092322,0.09540173292000452,0.1423472266780248,0.1702875190632085,0.19214987334704592,0.16449332672893835,0.09105700312084686,0.031100559275264675,0.11726683626359602,0.25793691954395026,0.3751591910466932,0.37368864562964177,0.25840234505164084,0.1756813825509287,0.1559372276656843,0.15139227473740655,0.16596095045478432,0.14940107005384107,0.1253545163790779,0.0970863424410533,0.08071740618992695,0.08402279971990634,0.05177601304462698,0.02420808965596155,0.05835645204565765,0.09406533785461768,0.11955970337006327,0.13799056411949095,0.10356403000915647,0.1162109159427036,0.08333188995921148,0.08785257185725738,0.11070434319023724,0.116250849785259,0.11578021941159113,0.14945926882394733,0.13079355300624051,No
12,0.5229679889126841,0.5531900602337925,0.5690418419438465,0.5698455298277176,0.5582364940849178,0.5534379779998191,0.5346753579563575,0.5299993986908555,0.548845907667741,0.5565086833600854,0.5589170020096597,0.5598634558604298,0.5701712548462279,0.5758151245491852,0.5708675985917888,0.5197530227482514,0.4386961805316072,0.37582009519126336,0.4306253447450312,0.5327021119285367,0.6470575663463878,0.7556339167884008,0.8401732721921031,0.8318089505245263,0.7387519999350816,0.6436066136325191,0.5799129026850052,0.5499079557613005,0.5631828927654571,0.5623975352185657,0.5168264744823348,0.5291979020353446,0.5702856717061922,0.5734217835708875,0.5821006732959368,0.5943659697133259,0.6016749493608446,0.6123158995936078,0.6110950872773895,0.5986573817709373,0.6209461131155156,0.6675418564665803,0.6651377633030835,0.6472801258399999,0.6430379085852844,0.6332017539286423,0.6213816991415162,0.6100607881113556,0.6187018766068872,0.6279873028236547,0.6271372020990871,0.6301580805929117,0.6293771805624311,0.6263132284215964,0.6238503399274666,0.6233659171060912,0.5763243428070353,0.500165595701414,0.414357500271918,0.42176700992443017,0.5189395442702436,0.6311499419888387,0.7464951056533518,0.853513254609223,0.9490054443403002,0.9574023260539342,0.860713558622098,0.7664560278754321,0.6811293127066058,0.6440174716890743,0.6555255027449296,0.6442190559132541,0.6196560555528845,0.6340433148186073,0.662111804363859,0.6731187032102519,0.6739321397586249,0.6900344416930455,0.6798123756013612,0.6806877086513211,0.692989428014863,0.6938621451050668,0.7136091925377888,0.7422607867425208,0.7188483025123369,0.7128727535918213,0.72555315395492,0.7053293366453794,0.7053800946918685,0.6962846352613989,0.6777183243146854,0.6593363754214834,0.6364378548581779,0.6136425126462529,0.6041394039468089,0.5931376995287656,0.5368820231785976,0.4546634876614708,0.39882871123597896,0.4712630676276533,0.5863076118533685,0.698370150066824,0.8016809831085592,0.9150622348245464,1.0,0.9770897856100283,0.882380737659699,0.7815276300291427,0.6936629766054243,0.6323735636983496,0.6024976857343365,0.5712477767403388,0.515531296824546,0.49173279013341503,0.5001328128031113,0.509371046792614,0.5241552141946886,0.5235147299920309,0.4961310420355587,0.4384567323389907,0.3616230237098228,0.25276375921467586,0.14136443031186194,0.09282854871767564,0.14434019988848945,0.2554620967246959,0.3608168031891026,0.38542669364545024,0.3028695268459982,0.18861942575496385,0.10223263502485523,0.0930063512941599,0.15668335517109133,0.2695328738081595,0.3713641732004303,0.3900561489048085,0.3055262453616305,0.19123829052958508,0.10331133330842368,0.09032201699926468,0.14000250298804007,0.2500564594141994,0.3562422574532844,0.3960756566614592,0.4285950696547132,0.4732432396151536,0.5065320384049308,0.5354844204088147,0.5996924322626942,0.6718523452969358,0.6456682579172748,0.5446761624328369,0.4299111202583856,0.32288216027282823,0.2339651842389072,0.2398173881352177,0.3268715723805795,0.4068091015771316,0.4844043990944438,0.502731948004357,0.5085806081900466,0.5250251962825271,0.5428826282437821,0.5721970805183303,0.5838620198213698,0.5937653098469564,0.5967324732456034,0.6104164950012478,0.6019468784630813,0.6139071443338215,0.6168554801672834,0.6157759060987953,0.6039723186338182,0.5790496599526778,0.5714940839169818,0.5698392922035858,0.5627553336968211,0.5696016440039484,0.5624750639952358,0.5492511375914342,0.5195821858398646,0.5095549145468974,0.5124269284874137,0.5596274475214598,0.5500049286582573,0.5403793818667548,0.5670877327205064,0.6451468325147891,0.7152429868762069,0.6378329571254895,0.5227130407594096,0.4123274378920354,0.30787445324345963,0.1975478922698075,0.15554553467233312,0.2213529883832286,0.3045819004159944,0.4002334095048772,0.4759896899843721,0.4966472404425799,0.5027050607187049,0.5059614177843454,0.5223350441735297,0.5156755643018099,0.5088979426638636,0.4968177251546586,0.5076963417773004,0.5186718976497011,0.5390522475314361,0.5330149542878009,0.5408653188341748,0.5493166432543397,0.544184332994655,0.507871823182823,0.483744252878445,0.5025552446975681,0.5017441994652878,0.4803243814618772,0.479512754227966,0.4675819649831872,0.4668613841589413,0.4273357519925329,0.412919049772456,0.43777547771338376,0.4502256085927989,0.4582602052946023,0.4891034971148645,0.5500670889784374,0.6075294465919514,0.5333574452439587,0.4185645143046979,0.3127109374921826,0.20391981614968116,0.08959651904959509,0.0,0.0018358838501688626,0.0972006393693512,0.20040126763443225,0.29627683623767403,0.38079161917753396,0.43970351435116173,0.4449098392803004,0.4429854567360434,0.44555659367668504,0.4447274341351468,0.4377260714347924,0.4227407338103575,0.4040932030790576,0.4227790756992911,0.4477142278157924,0.4592262527323361,0.470996841010443,0.4539875180246398,0.4332017698379973,0.4191863262753559,No
13,0.20884478818623808,0.2048712646156723,0.2052999781982061,0.2267038302004858,0.22087246422149764,0.2005764140650106,0.1981671093967252,0.18245528003271527,0.19663656929455,0.17686430108287698,0.17098235304085566,0.1708458130805024,0.15815870041541658,0.1247658635599498,0.11634414175693485,0.15512096571786493,0.2284540837045501,0.2562494293438764,0.24971019300139566,0.22930735641648514,0.2336958558358164,0.25520667186393103,0.25691836428184806,0.2693089769033952,0.3149316190801388,0.33649822646135075,0.3587735410153279,0.4719050359010994,0.5929432154129062,0.7148862457363725,0.8019737255178274,0.9115444908160856,1.0,0.99956585707623,0.8844753455693075,0.7451632813203011,0.624392356573428,0.4877231691084392,0.3738875169654072,0.2713499554652046,0.2303901490073361,0.2486036277043357,0.26284319441355564,0.3035299827284703,0.2900791079555232,0.2522724582314142,0.2497335810926602,0.2570498945536732,0.2718259673956549,0.28530154885598513,0.29022900310998523,0.3046490517868259,0.31353681287632185,0.31098496233791284,0.2981718333249033,0.31048379036280505,0.2999926607283667,0.27124736072861033,0.2400736350868682,0.2282384060573186,0.21685317767083398,0.19691819018499146,0.17432648418983998,0.1759104874081716,0.19719819311043274,0.187758757432178,0.1946083793776072,0.17398983302261506,0.1530667710109439,0.1144986912669914,0.09645192819970294,0.14395919183141093,0.19910827102662051,0.2405231572822597,0.24993069369039225,0.21312743171399265,0.2017950442584171,0.21716422111091396,0.2009374794753498,0.18939677130566324,0.19998552380467327,0.22964641921337134,0.27191357230374624,0.3619740727977181,0.49039632956866,0.605621860542942,0.7191198243506225,0.7918363421672128,0.7527201803732133,0.6389463027736424,0.5175284565646097,0.3867565063780036,0.2718336250028628,0.16971930521907466,0.16610616751554108,0.17164936100118133,0.19021398802740566,0.19637668746561052,0.15873219008647865,0.13989291825675032,0.1332899578137976,0.1655672431904014,0.17608891536217364,0.2182692468882026,0.2522746556574757,0.2803276887842321,0.3089388637728208,0.2893887038015839,0.2861505361497825,0.30177102067961403,0.2933888197291292,0.29600503120638866,0.29295740582740937,0.2884865846710092,0.2761368312505761,0.2585280430650707,0.2565399959943413,0.24307319972008035,0.25162255269396905,0.2568403937724426,0.2542407262592832,0.2296976019146637,0.20435579345767785,0.2284307224332789,0.29662593924166725,0.35317492737944,0.3700778357628396,0.3442365220448877,0.28095005372472404,0.2300146999108579,0.26649197460204377,0.2833661390032871,0.23389482924060626,0.16999399051636474,0.12814328999562008,0.10744071622877273,0.13647165700430985,0.1642568659626642,0.1857332856315024,0.16977019967097995,0.1595985757150622,0.15951863911153108,0.1619436518702786,0.1847120386232444,0.20780378889790094,0.198480902603734,0.18909731250948705,0.2006216888842012,0.1942267223923668,0.20218448812949408,0.19640585733291616,0.18950655686335427,0.1606685895119293,0.12905557029529735,0.09070588168898476,0.07343330155418837,0.05506467665469384,0.02934363728477773,0.03396670124855472,0.04931238635959634,0.10955491316368793,0.090157190517135,0.07373598821945393,0.07209873864373327,0.053644648532896966,0.0988880292944101,0.19901692615952624,0.3044211856329131,0.4301331592934439,0.498041008111656,0.4108354772657297,0.28975170186721844,0.19995216750456726,0.16204345323338387,0.13415517186454107,0.08665727212286267,0.0928900922277176,0.08945281580648601,0.1092409670827612,0.1301411934397505,0.13298925537910833,0.1532864969837604,0.1353234986815366,0.08364799118020105,0.028389797982965707,0.0,0.022135198384092725,0.06416074507544778,0.07561108201618794,0.0973435309484776,0.10224773192176427,0.10225690834049406,0.10225690834049496,0.1024693582151528,0.11618127761088905,0.13137063565040208,0.1508617695259682,0.18066975613522465,0.21169892420981465,0.2167757821753229,0.22122589649605384,0.24273065708496944,0.2222992061950784,0.20824680987251745,0.19966660586090867,0.1869931284228672,0.16619754583606827,0.15313122935204504,0.14569014699585825,0.14974270482451768,0.16697643712603494,0.1901966082219877,0.16092869666151266,0.1583502239926844,0.14474933275347812,0.13773087243919946,0.17011837963671894,0.28420266555210816,0.4081424073903301,0.5373044919320904,0.6578408150946125,0.7489139961839761,0.6647804917305065,0.5367452986629075,0.4164637976934689,0.2972413678570698,0.22454272128773045,0.20247481692288005,0.19705497260008809,0.16706105813119798,0.17959034003479868,0.16768026607043307,0.15958315343296015,0.13245317001086487,0.14409116754530427,0.17121412569882732,0.1652449804707281,0.1208606102291423,0.05315669228346831,0.025315866864866976,0.02831066487643685,0.03876914252002539,0.07458414892791332,0.08401046105292576,0.0895586609277137,0.08993336869726143,0.10199131784807047,0.10218607551914703,0.0922021885587272,0.09991772919935292,0.12989148089689895,0.13060065893273975,0.11480608135973913,0.10238343363571367,0.1022569083405287,No
14,0.2677330920688221,0.27372266341909945,0.2841117056955538,0.2931445097218539,0.3537444264181162,0.4369640959381309,0.5245281128168369,0.6121701291529051,0.6998164130805379,0.7907301383985899,0.8760252415344851,0.9195168171839109,0.8529321398414726,0.7573099720155421,0.6713948829100533,0.5770542440451911,0.4799113184068222,0.3871659491957793,0.3028950810599431,0.2769439240705216,0.3176256728172291,0.33103924937658924,0.3323043370414758,0.3103300724112916,0.2661246924395244,0.27319540415926946,0.31108117044015104,0.323342161838204,0.3270887479350804,0.3055573671636904,0.2840942902752408,0.27324885973320123,0.2618178475029551,0.2606412734847328,0.2571765670387416,0.25453749349723953,0.2503458327598911,0.2365832787195705,0.2086228553030192,0.1895251553613866,0.19994789888621467,0.2272962502200357,0.23952126029839915,0.2414997772704841,0.24875520139654794,0.2682743827259406,0.3088269498880156,0.3896542539219947,0.4784202256799355,0.5640198480093535,0.6510818420453179,0.7452169987306361,0.8309799420527062,0.9246226238855376,1.0,0.9993499842603564,0.9162396638706998,0.8211934807482506,0.7355415471498077,0.6400920018083038,0.5429946658248679,0.4520129510688475,0.3635687470309472,0.2682401367000984,0.23580103666398425,0.2941172050803829,0.3035170129484221,0.2873785719619728,0.2785047891626187,0.2277816923546085,0.18557442458064702,0.1915688579107755,0.22506658052286665,0.2252586549161921,0.21532257306240246,0.21484014551886646,0.2144525927651104,0.20844786332845588,0.20406743788243545,0.21481303243953453,0.2272620002301826,0.2241330680985465,0.21459745542258,0.19351485684707148,0.16643937903764572,0.1588541808685271,0.17727793295624972,0.20138222443157616,0.23034397667382445,0.2451240825679704,0.25480831288463746,0.2791947568437698,0.32509596223947806,0.4006716837954838,0.4843419901202815,0.5777905966718038,0.672037626035797,0.7577480166289168,0.8360289617820555,0.8258064929530708,0.7473934507551618,0.6530293506916749,0.5571028291618845,0.4712733587814317,0.3767571920679549,0.2816164383541975,0.24169012738147624,0.2988390056326713,0.3216380127415608,0.3297223135070326,0.31969581771831607,0.2661895711981259,0.2419395564947986,0.26280378546880545,0.28087481579885365,0.2750889844084705,0.2624870085418109,0.2578130754010295,0.24450443521050105,0.2337255158581653,0.2391646722164049,0.2445732379150489,0.25377052886365137,0.2445346019943813,0.22413994879725152,0.19470407203062304,0.17427310260440265,0.19072657949036254,0.21657554550491745,0.24693464958518696,0.2661477793272837,0.26537499059855163,0.2753159718898792,0.2791027503448049,0.2446644783066483,0.2284503944633478,0.21509430066517066,0.2163799387447316,0.19084806003441826,0.1609658306526338,0.1362444290119873,0.1278475644967254,0.14452631477962766,0.1769307510948761,0.19916806231964346,0.20717503031679607,0.19598665063384454,0.19345840000922945,0.1943609240268316,0.20549512983553744,0.21523744260492614,0.2238393704966266,0.2287522739470158,0.21274853295053653,0.18260934800333128,0.19862433913457167,0.23371785555611704,0.2788198983252448,0.2832722702625774,0.2448779160954686,0.1664471772813041,0.07789891796244852,0.0,0.010406593269634444,0.0878794831446168,0.17700525012632173,0.26650495644848826,0.3627073610657852,0.4475609607249829,0.4792407503003755,0.4074440559969452,0.32321930323925896,0.2589879159778161,0.22140806821732228,0.2040438736885437,0.1932756619889764,0.1758491663934838,0.1517775412784741,0.1300971878186079,0.10898158761239428,0.1096741967042516,0.14047256291002874,0.16440172019902555,0.1773241251497759,0.17400223228680997,0.1635400095575945,0.16289315574134774,0.16289310023892956,0.16350876129888192,0.17386652411333747,0.17809394731528586,0.17050192630839733,0.1395437896425884,0.1406529539252892,0.16868772801123644,0.2186810563244963,0.23294063419150654,0.24904023921850804,0.2043705311725117,0.1225819417677001,0.04572564810637436,0.033244873387465734,0.10955750636541817,0.19594846594342075,0.2913794217411345,0.3773645522192948,0.4715596692897819,0.5686707466378649,0.6486535664618387,0.6081800630009897,0.5235867565789731,0.4365575837106053,0.3513556409622596,0.2812350694376482,0.2332717544602088,0.2103307864117201,0.2053248475864886,0.1930444565338938,0.17901969859822353,0.1595436926445406,0.14839170159255888,0.15992235487056214,0.18102038939359175,0.19797540404007566,0.20838277376061365,0.21312179582321766,0.21003151767955952,0.21277978696329655,0.22498566362088868,0.23838615847098102,0.25843339149765043,0.27472469259627674,0.2681522019470237,0.2399634179332524,0.2150736105946267,0.20306487571685936,0.22149664249743672,0.2715230352362945,0.2773619317233478,0.2515928695705947,0.18398463790585276,0.12219212618693033,0.13127410730205513,0.21722146416866608,0.3117063998919383,0.3974813569921736,0.4917893847209292,0.5252767391607289,0.4526052890596723,0.36658696448857375,0.2903175429616076,0.2413017067447276,0.2327100899502601,0.23092273021389695,0.2205517385800566,No
15,0.8894116875896039,0.8726651372851162,0.8728418063695624,0.8917015558023484,0.9059591439494036,0.9238724996254308,0.9207553389579236,0.9180777166131984,0.8963580562593192,0.9035612788566328,0.905289852285848,0.923219436557626,0.9104268776537204,0.9319478504457832,0.921700004046408,0.9046356493384282,0.904328027464394,0.9042529198517936,0.8927240286267661,0.8464708124396267,0.7867052485225159,0.8446123943533355,0.9228553957940732,0.8582825088228301,0.7125037240293235,0.6242484019080656,0.7200972988186729,0.8519292485622136,0.9258921195191316,0.918664274747754,0.9227935716963565,0.8918807264641382,0.8294383335338376,0.7975924223499478,0.7982082808616511,0.8688692275952876,0.9034046004426449,0.9144992278269068,0.9161374859939028,0.9044283772991664,0.9044180987752116,0.9165931131792666,0.9264222153626348,0.904406133674784,0.8824870436741925,0.880981203721797,0.9077692698081732,0.9341798192793762,0.951687123297333,0.9526396761351288,0.9363276469541448,0.9034549821598166,0.8539806003984971,0.8407981309596311,0.8585722013147947,0.8678735391876762,0.8620507142153615,0.8722204872281276,0.8723461739120006,0.8723461739119864,0.8723458887504547,0.8706653457956435,0.825914547833861,0.7759468973161336,0.864980543924057,0.8700154137892477,0.7529727641905355,0.6346950972848626,0.6851788145493547,0.8112290738055137,0.9118310685716438,0.9482760192818532,0.930642726520828,0.9031609728050308,0.8590683930139562,0.8274011480449461,0.8223826773743141,0.8601687061027192,0.9301249466629028,0.9577743648921492,0.9456659896046958,0.950992504688612,0.9607966512106224,0.9682602862434502,0.96597926704018,0.9545377330841092,0.9453935109849674,0.9456031098212224,0.9674732932377728,0.9841330998647296,1.0,0.9997590769687,0.9790467218861308,0.932549628975602,0.8597907097192792,0.8587723931862516,0.8584266713323361,0.8653549926459805,0.8806228937249072,0.9030600260653878,0.9043244117236641,0.9011955973601928,0.8789728390719187,0.8984409073295803,0.8848598040847362,0.8434923920213304,0.7603495524922009,0.6508944170360369,0.6091754658608037,0.5877593073461691,0.6816654748520996,0.8146451320771275,0.9157134037210124,0.9362293958868202,0.944387634958784,0.9356840750841268,0.8666092625816528,0.81536317206902,0.8288181243245418,0.8467929426781113,0.8993678787737771,0.9022118071847968,0.8520589261894189,0.8072445750475756,0.8168532001722744,0.7519617077237912,0.6847775647483125,0.7085920519568001,0.7223799731320408,0.7074958542347831,0.7841490949397993,0.8486477311915968,0.8318869162161491,0.7888629345649534,0.6653649298378213,0.5298844718813029,0.3995959923009327,0.2635733829561921,0.1214753454047317,0.0,0.009024930521698948,0.14755638909026114,0.2902901261666564,0.38549571561106255,0.4871137004492496,0.6085348046347541,0.719183312031662,0.7825017135917269,0.7886385283831512,0.7672807299909783,0.7898083792502826,0.7955773398556882,0.7955889106396086,0.7936301511302872,0.7698736806681197,0.7636265385650693,0.7640811265237488,0.7909932672075906,0.8580144010748949,0.8901544328613005,0.8904287188763229,0.8678310125349604,0.8591540373249664,0.8428401569434456,0.8540541899600802,0.8595578523632978,0.8654284797061091,0.880382074082287,0.8606577101851416,0.8595536405818578,0.8585819037289166,0.8237676193613721,0.7522861003586279,0.7318631344824631,0.7400920423025523,0.7733160921368594,0.8206048843207521,0.8366954106121999,0.8244086207819388,0.6954512812992855,0.5620217771854232,0.4456774521270273,0.3190977283307186,0.2172649604080643,0.2571115503548187,0.38413557014917205,0.5192079075549412,0.5006173541111476,0.5463266398056996,0.6526295908289228,0.74927028181816,0.786438183987042,0.7659449897583013,0.7860110012640602,0.7907911659302638,0.7664221854634814,0.763609026705927,0.7611257999859298,0.7357778834506831,0.7167236767758958,0.7391797369869817,0.7914468961920669,0.8377490967008621,0.831728887699251,0.8366783090620542,0.8416273545141797,0.8202564290955952,0.7921871838343479,0.7729635599315223,0.7937457949527245,0.8026793215682204,0.8259669048246899,0.8216291441454553,0.8015474112732397,0.8244103334895989,0.8154723923594824,0.7956475719298837,0.767384049481616,0.7004384779355721,0.6719596789960667,0.7095109118963174,0.7203944309174197,0.7827439512267018,0.825585847690606,0.8207150176702394,0.7382379486582957,0.5934764244223754,0.4716138854695116,0.3562637172076437,0.2673305315695433,0.3085392436402081,0.4062613790415801,0.5288992885169606,0.5645481858787678,0.6505279611231679,0.7453301162200923,0.7911646763487727,0.8079524088285881,0.8218091097662734,0.8159855158525104,0.8060119064401796,0.8206980056495041,0.8111884856100664,0.8144065011402866,0.7970703412252576,0.7955901228521514,0.7959103973499699,0.8124021142877709,0.8273576549730848,0.8253143452426173,0.7958583279930336,0.7664908343400922,0.7827003444185303,0.7926999730707411,0.7733279049278847,No
16,0.8492194340145358,0.7752696863363164,0.6777915812176422,0.5649375574317537,0.4410164479374839,0.318229859167662,0.20010351871459744,0.174975059669781,0.2862208373432189,0.4231096188077799,0.5470006002812058,0.6877011546163763,0.810836548338072,0.8739771373138838,0.8527718114759484,0.876793864630498,0.8854515598878043,0.9045275796778204,0.8651389665910258,0.8099674155922649,0.8088558365861811,0.8338917493719897,0.8346313212814849,0.8292454765572606,0.8567847275904441,0.8388615585702404,0.8155423264080115,0.8092701244589682,0.8178253785401504,0.8189085326329781,0.8252400649220029,0.8341464208227043,0.8336420054431866,0.8149690749575579,0.8269849739190525,0.8352476445269552,0.8319395503606479,0.8263701109135742,0.8480857724013041,0.8310529325699969,0.8196812449585781,0.830066992548832,0.8190449582365202,0.8177844460725927,0.8102617807924197,0.8274549012626435,0.8160305661672007,0.7917016200440266,0.7634794792229886,0.7576075550237142,0.795127523038917,0.8394925674848164,0.8947147694039606,0.9328017601502748,0.953033508550198,0.932514778277742,0.9292212627656768,0.910469852975396,0.9060972721502624,0.9286053770433168,0.8904779144762901,0.8601497892345895,0.8037607819328958,0.7107871139630948,0.6029838671989998,0.4834366266323409,0.3557092419161725,0.2465581045382499,0.2692466737969976,0.40524803236167983,0.5301329250802294,0.6670537601563701,0.7995297779180754,0.9265644699903062,1.0,0.9221449191552678,0.8562842599148812,0.8927937845558399,0.881936138250305,0.8811541628090467,0.8586097635077552,0.8219263498457394,0.8242745184883882,0.8351687835236907,0.8369662453954492,0.8671304181055186,0.864917004075636,0.8441073377010042,0.8477751579782984,0.8359442459576805,0.8498137168547021,0.8622854602019832,0.8880312234103078,0.88418760325757,0.8724656177970207,0.8592481743148079,0.8526872283971159,0.8612470104473262,0.8555972623471302,0.8514693852096062,0.8581488412083536,0.8462370242886124,0.8300593941551577,0.8205583571897321,0.8195060299578465,0.802511406344804,0.8134349798597098,0.8087855698619144,0.7837147792515715,0.7782025249902746,0.7700962791309829,0.7353885445207569,0.7065876272526506,0.7170687320887739,0.7610522247425466,0.8117271695339925,0.857631746848889,0.8614555330912879,0.8608994435875585,0.848127317183569,0.8574536986794516,0.8489037902458669,0.8248657728775131,0.8081989777308527,0.7688166952150493,0.6816395710987182,0.5848129738999512,0.5401587357093343,0.45025334619374746,0.3078558864441843,0.16856616986968387,0.0971184318707401,0.10631562796809167,0.2015924001796061,0.3438425403784917,0.484650882517168,0.5657601812467634,0.606350066604989,0.6987021986194453,0.7310689619789192,0.7512500031236842,0.7634324999707339,0.7724433418503205,0.7725576125432054,0.7724895612271006,0.7624009715271844,0.7157782012568923,0.6718217432281799,0.6398945730076031,0.6216065815924541,0.6417384819523829,0.6787215365817385,0.6943081519744725,0.7087284252662194,0.7201329552992117,0.7234760169394452,0.7429814425964363,0.7294577871459458,0.7280345726346278,0.7486527668266181,0.7696055597693574,0.7725532823229715,0.7725576125432143,0.7725576125432152,0.7725741787146054,0.7773089486476907,0.7787072828466819,0.7725820594239696,0.7670592888615708,0.7571867915725301,0.7517057258620738,0.7544841210960191,0.7620692169850161,0.7620300340005848,0.7636062221369961,0.7494207028436239,0.7300137559049524,0.7053347695299097,0.7449677191934629,0.7811881170190835,0.7806457398901063,0.7890962849877585,0.7565334691935481,0.6817537353186031,0.5981405657446723,0.4593411812697683,0.33459134084117137,0.2338555911402769,0.11459445040839801,0.05888386678047031,0.11035445297842816,0.190150024384776,0.30057224142602523,0.4237231337188305,0.5571674631116776,0.6793836054201341,0.7556823650757769,0.7963512902784178,0.8238791771422243,0.8248510085391656,0.8226883445102242,0.8070493855973035,0.8364379816381415,0.8437221242817081,0.7962071835436735,0.7453593975180199,0.7012083309490961,0.6719400227493493,0.6894646674578286,0.7052580069649297,0.7251388729995476,0.7420559947894922,0.7240040507422174,0.7356864334581791,0.7462950458621744,0.7464037591513248,0.7426975154208311,0.7333267652726567,0.7460116112969013,0.7464102807826496,0.7464102807826496,0.7464102807826505,0.7464102807826505,0.7464044984225371,0.7429938587199034,0.7327210168588376,0.7309237466844074,0.7261786200869826,0.7323110614156265,0.7342513528210812,0.7368059547164485,0.7532818958006908,0.7464756076550029,0.7438234831179322,0.7098986993836576,0.7098318357461322,0.7520594299999557,0.7748433762081754,0.78120462230493,0.7616481670034689,0.6865427122939289,0.6162953597870926,0.4921065879096842,0.34878599063594473,0.21099601426772496,0.10176793938414308,0.03248955876843329,0.0,0.06405782773007429,0.1801801972969832,0.30022313215033325,0.4220397334300055,0.5612634593374759,0.6739915686752855,0.750826889772723,No
17,0.12247487988766935,0.10908287670780226,0.11672972374721445,0.11321088311155635,0.11254594242201144,0.10805534151009376,0.10644664432077544,0.10120613310020188,0.104467521322543,0.09696536692539492,0.11860147973223788,0.17243963161558762,0.1987350944178816,0.21012762401896268,0.2098328108055867,0.19636033443001066,0.1792194054413443,0.1719807955403536,0.1701928166858493,0.15808910780372765,0.13540398694466926,0.14990802171615591,0.13027611122842184,0.14581588385927224,0.13522786717522184,0.12426940284645173,0.11993302831673612,0.12489802524130188,0.1260084017332943,0.1293336140944472,0.16022434370760852,0.25336742776003884,0.3509747315375593,0.4488458450564643,0.5591386162086058,0.6591053582459474,0.7718156126126972,0.870396948392663,0.9200838187993808,0.8586998404730237,0.7578909918054264,0.6500766803609026,0.5414769381639446,0.4388134434532862,0.3237229811989626,0.21840622506331053,0.1483200995749252,0.15217134540014898,0.1755657309559604,0.19532352156661406,0.2306173195349226,0.20205202892242055,0.19561883309281705,0.19388550575196065,0.1768453263259464,0.15161451130267034,0.1529937554117966,0.13948491070232194,0.1442417041718853,0.13803203696308894,0.12735201639779706,0.0942665293172058,0.10966491644465616,0.1127803010089754,0.1135475802115824,0.09575808239053883,0.09629358962496283,0.110238855214694,0.1002196093077643,0.12428287983883425,0.10249289357118796,0.10332808732815968,0.11126671097785534,0.09585442471073913,0.13042227903657055,0.124233974554937,0.13249893077567654,0.12864623640180772,0.13561666225585745,0.13400059350693372,0.14390828083103058,0.15004364245254642,0.1472414649664855,0.15313570574797586,0.21921544176987373,0.31276042541392224,0.4130744653248604,0.5260517889880343,0.6262373871194677,0.7375847498940781,0.838754889251184,0.9431806569266192,1.0000000000000004,0.9480195010810301,0.8468678725423541,0.7344827178952404,0.6344044081007407,0.5208812898804779,0.40526864430559817,0.29006169396690984,0.19381373317803208,0.17699991335043608,0.19969331737841006,0.2270459411622747,0.23983207808630125,0.2591709017540529,0.2819616227515813,0.2877384517084076,0.23332139255506856,0.2023929797056976,0.20970886296839408,0.2051103293691776,0.20839058850732872,0.18522684114193755,0.201314401946922,0.19105194099806155,0.17984699561524842,0.1969179568215078,0.183414260053274,0.19781947731800287,0.20473204471160236,0.1969712470708456,0.18915070517309784,0.2087414621204049,0.18824497085000846,0.18802564720447545,0.16008627811751766,0.1297740055428851,0.12747751595999945,0.1292011309254848,0.12598199437710367,0.14325198586445298,0.1537799210217674,0.14916849431307133,0.1030471806052642,0.06236912179058285,0.07512207856076225,0.053151100480418816,0.05353743043408832,0.050808331442953936,0.0575310415810435,0.0642254286732582,0.07778237595148951,0.10390131761496058,0.11612348640089197,0.11217979610936536,0.11741688399198402,0.10894209057527293,0.1087520034706384,0.10872043539095301,0.10395240371419012,0.1016419439154448,0.07990100421810586,0.08952778542166763,0.12064036997938787,0.1155828517852413,0.11911907028529622,0.12469069404438883,0.14135994269590135,0.19016211608884248,0.1953429014330461,0.17687413100930094,0.16035267315948598,0.13275111618685154,0.10562016716503164,0.05221061653620795,0.0,0.05117962761158301,0.1468785636363754,0.2556168290430745,0.3631909191942895,0.4668175648418478,0.5717232834511261,0.5522551246129344,0.4523356361784625,0.3398234733230883,0.2440055707353688,0.1570636811721018,0.09741526450614613,0.05820095169360106,0.06677243200635186,0.05734689739450971,0.05667441947674722,0.05637776280725815,0.05720141356241815,0.06097000895542815,0.04559821234240635,0.03536960692076185,0.05495539127303939,0.01992036122575413,0.027170462332505085,0.030636889599410914,0.03127506890976717,0.03809278303811592,0.0141987052300796,0.017035403879533284,0.020250296544898738,0.014987283791991326,0.02891079677467445,0.037160655141466485,0.02354525338586866,0.015055054070615803,0.028569125126585163,0.055568675399302325,0.0599044941707092,0.06814403915540579,0.0727176993649774,0.0796570324922139,0.09408154607954168,0.12099917228483248,0.11569217387520415,0.12752783581657254,0.11694821266593534,0.11448672765696345,0.07988231013024373,0.013992946319496545,0.010026934688307064,0.09478899321612387,0.19660910435894866,0.3033629034378542,0.4138228561573705,0.4346626450621365,0.34603768031264703,0.2469451333908461,0.15775401810479206,0.08633434538642337,0.05100609412520018,0.03876997191784248,0.04369019713755717,0.047783264590631536,0.05916804684613375,0.07413167069012694,0.05517901629116384,0.0549788860224143,0.049889569156449376,0.07216176026551091,0.08093310194615233,0.09674499036439244,0.10884617464128253,0.12018442922384764,0.12587260142106427,0.1193468767814374,0.10950295964427204,0.053454010635483495,0.0340545979981699,0.016888221894023836,0.015515901799362018,0.027308289025733238,0.02194826686769646,0.02363949619935024,0.027208203004253303,0.03518360044044089,0.041386057021640436,0.027850007880511733,0.030103949648455863,No
18,0.8759523961554101,0.8277961377621144,0.7618688736155246,0.6874275779850381,0.5990103080347069,0.5096294834402317,0.41586570930839617,0.35142038264758746,0.4159101512834589,0.514863437314069,0.6138003574218356,0.7038506012199695,0.7975616617718442,0.8944982288989722,0.9706395456708838,1.0,0.9658144758073814,0.9502210832125008,0.9546916943398588,0.9549865260062488,0.93580162582121,0.9271137392040028,0.9324143177359168,0.9347714665610054,0.9347775145751248,0.9347775145751234,0.9347765386312128,0.9337056238798658,0.9225617684403926,0.9169345384203584,0.9175218499771334,0.9292071269378788,0.9172127225790794,0.8835432728864183,0.830364675329462,0.7772759309142794,0.7730502088971334,0.8109023991510821,0.8501220692077851,0.8809429596148058,0.8890958808247338,0.8849749575704227,0.8740094329076817,0.8534971784775083,0.8017836876777666,0.7330207870500658,0.6545574715153712,0.5680265073922608,0.4833779044641973,0.5080049854997308,0.6040171034363202,0.702994361920839,0.7932774189452347,0.8863553850172292,0.9664336348631326,0.9745126766148688,0.936445435184492,0.9164055350663652,0.9263701212033136,0.9345785027076824,0.9343220000966066,0.9196072236313326,0.908864874452528,0.9092170196893372,0.9150460214430368,0.9121439961891418,0.9050098250451266,0.8984856044406011,0.8894658035688554,0.8861791085869162,0.8868716585533925,0.8897572846959796,0.9043136088070498,0.923182145059489,0.9301089192498436,0.9256192263667962,0.8785174350499334,0.8173523186961025,0.7684477790650579,0.7815606157890258,0.8225057964306011,0.8554799120655976,0.8819636319290072,0.8767617069313061,0.8842992430921459,0.8733034443193719,0.8508681588301403,0.8033156870193796,0.7418782129689805,0.6658487890156684,0.5705623577961632,0.4721272475336797,0.41421383243888776,0.48079919991268,0.5687922890365895,0.6648097532407822,0.7627091187570838,0.850596407044466,0.9436264211172388,0.9852731969656564,0.951152007934808,0.9108964103664449,0.9110439660919694,0.9302104461928752,0.939203105191018,0.9261818418829072,0.9141932509614614,0.9039455811830308,0.8975556905213821,0.9039196922260636,0.9043855716735744,0.9043856633860728,0.9045840185826096,0.9095519473518209,0.905272055597568,0.9070686845450456,0.9203003514098826,0.923390431381098,0.8906354134666392,0.8688345895544405,0.862286022751082,0.8530758062783033,0.8527386914385691,0.8564645010545937,0.8665059235076421,0.8568164633198956,0.8527427412011201,0.8530253012031199,0.8617702629005608,0.863346811865938,0.8719442597576852,0.8741155362791035,0.8845029600227221,0.8804674011818956,0.8687323298739171,0.8704557212995612,0.8937668306984632,0.8420968196123093,0.7486533071983548,0.6592495607247493,0.5609223006329618,0.4714375663362964,0.3770449865115881,0.2792354939662773,0.19137493331667346,0.09727660801393978,0.026285397941390842,0.04435405917259727,0.13430831628460216,0.22229280367712007,0.3175631121575666,0.4056091349178295,0.5008395473814433,0.5883200659161014,0.6743080406902173,0.7452348497632078,0.7954178116922943,0.8221394108696574,0.8350417460890975,0.8367668982714918,0.8168896625302642,0.7821335131330196,0.7414043532636394,0.7077800987246587,0.7249776847984606,0.7800656947269222,0.8436352087723926,0.8805403857065586,0.8790592853526378,0.8569709109298889,0.8477654109867054,0.8379721893178913,0.8378294565314532,0.8466937082691648,0.8526479773909168,0.8546390964351986,0.8661109812570986,0.8678580532743165,0.8631971556508593,0.8645507876026906,0.8698212571880841,0.8850583740807973,0.8757055098204813,0.8716021402888474,0.8709142105466308,0.8959537000457769,0.8402721990124933,0.7437440252148884,0.6559453470566341,0.5584215810156818,0.4592834621500539,0.367327036489904,0.275637871296992,0.18013543098567975,0.09254633961727166,0.021320165485609444,0.0475852088700357,0.13822778455687426,0.2266295918667114,0.3223355180357099,0.4159000013502077,0.505639768825469,0.5946223699497457,0.6779590916056577,0.7499855001782391,0.8099466538047304,0.8355061965152446,0.8379806286359246,0.8422558378129681,0.8253118418770939,0.7881480544470816,0.7467811063962522,0.7070613709760645,0.6869948188763577,0.7308275127484389,0.7886704168323484,0.8493889796017102,0.8772092848099913,0.8726760677147509,0.8679574184335688,0.8689302980295177,0.8807548562814841,0.8944494432810521,0.8982527394849229,0.8942798418211466,0.8930540310143162,0.8857846857255667,0.8831201625023035,0.8831151930956399,0.8856927584871053,0.908049654204682,0.912119652490566,0.9022051946861968,0.9126885096877236,0.8784454649316014,0.7930415621145315,0.6941752999856639,0.5948953121117135,0.4956152648943775,0.3963952802792634,0.30268505144447033,0.21262096040930856,0.11603357609622013,0.03297282832062032,0.0,0.06463287341780366,0.15635964594614116,0.25307555355714584,0.3408870993808484,0.42871143995065264,0.4976921401617838,0.5904025982887653,0.6762345074070271,0.7564791119941261,0.8171101334435935,No
19,0.7029917745061551,0.6836425583328332,0.6753774729924089,0.6795645849550569,0.7137359190493333,0.7097462811941241,0.6893269881243702,0.6738982091170556,0.6444708519610973,0.6392500281175737,0.7177253935672149,0.7878127925368439,0.8163956926611693,0.7945798662563117,0.7664588577048317,0.7486053901265572,0.7106316512778905,0.6999425860643695,0.648804529638543,0.5639932229808338,0.4576290518794552,0.4017785087978121,0.5053951379165094,0.6386229018435943,0.7454561166947329,0.8739072088569486,0.9454532932899484,0.8782773815252787,0.7554467824920987,0.6812697035495558,0.6768781892381615,0.6963631997081468,0.6684875993370953,0.6243376447792963,0.632840549472423,0.6727964920316527,0.6876242688789995,0.660409668795487,0.6709571666887753,0.7004421681347655,0.6852284111778415,0.6489234776954493,0.6697165430570147,0.6998733818443226,0.6847610131406494,0.7011008291098175,0.7039386775491305,0.7035462438743112,0.686129431890051,0.6529594963226595,0.6408279605154634,0.6045444367128718,0.584256526765266,0.6507074023162396,0.7290667900914585,0.7774219267880955,0.7786293604498216,0.7449205860397115,0.7142006716526046,0.7116047849437388,0.6775967533937566,0.64495239387883,0.5807191009538277,0.4783701982063109,0.42228472622690383,0.503007338722723,0.6093752586343575,0.7398158696683037,0.8629259495610606,0.9059271547683512,0.8636384557282915,0.8949897185351432,0.8741624436138373,0.8352332192345102,0.7978636080722437,0.7706929028629066,0.7936080879752963,0.8141343959960272,0.7791600034445896,0.7078075282751515,0.6335321730193479,0.618188280386649,0.6221047881736474,0.6720444582049208,0.7277142634110092,0.7487205631768337,0.7493815645800295,0.7526656360015496,0.745916124276202,0.7438904237059187,0.6906466994279628,0.6663571642630073,0.6893989582660982,0.664181491557498,0.6881073506865585,0.7626980450073466,0.8273357876732765,0.8741428986020043,0.8926340567870135,0.8530680511143514,0.8294179083637312,0.7941810988827092,0.7634356278473433,0.7272365809171628,0.6525575410126478,0.5673894544381648,0.5771475502296397,0.7026699276709305,0.8338493736620984,0.9571571087412822,1.0,0.9070750236511662,0.7969758265511809,0.7808891005081477,0.7580032208696208,0.7328701057016973,0.7051893257620625,0.6612488574065489,0.6857668019923482,0.7172325759547062,0.7322923333555362,0.7325518514046045,0.7325518514046001,0.732533591805935,0.7237160001390626,0.6736733828458803,0.6633555306450392,0.6485984264238356,0.6502613038601606,0.6358886755392499,0.6351804542713548,0.6216428042936668,0.5779562234873188,0.5562238434691658,0.6013630144079674,0.6441628658266207,0.6669632112559993,0.6861161932402773,0.6800116985721303,0.6810361111402471,0.5613949406784764,0.4635386756403648,0.3635955582349828,0.2488930796432731,0.13640014337614748,0.13966945566749445,0.2522700061947196,0.3775968179056113,0.4956476935412954,0.5955550548818582,0.6593717742582789,0.6840068921033238,0.7239791237665942,0.7570606955049168,0.7734148937781766,0.758831712234322,0.7254200376524399,0.6468079344613944,0.5706220810388709,0.5554476160687312,0.5912922553673763,0.5744120790722596,0.5713984791374367,0.6256335169859533,0.6530751583618226,0.6637216924293261,0.6539953308877031,0.6156718033636466,0.5550293968922624,0.5218800861338231,0.5208574575074625,0.5276402252787937,0.5777481374939413,0.6612206423049924,0.7222285440621121,0.7021127640728126,0.6850472155577485,0.688394039829654,0.7243735396862077,0.7546528698579484,0.7949917194496674,0.7543529087287713,0.6882352488967332,0.5877796679062692,0.4596072834078582,0.3499885077079181,0.23794794937128216,0.10235057133178847,0.047544807780692366,0.12424723853790365,0.24899911898852525,0.37649443340682254,0.4890745932604537,0.5571361674534749,0.5854447744587032,0.6198860982340975,0.6386648452516202,0.6735464156008772,0.6785068340934401,0.6282831359565186,0.5445001282463151,0.4960369265211106,0.511691754954116,0.5568971302202872,0.5786558995020767,0.5971541310141806,0.5909660189168058,0.6059346326497783,0.6066661319441673,0.6066631464220498,0.6039202138235122,0.5750780470315462,0.5512978060534133,0.5740326015630552,0.6015740578472668,0.5809215129647152,0.5820658674911057,0.5909087233827091,0.5498715106157626,0.5151432254526416,0.5069395463897859,0.5688142642792187,0.5984028412392783,0.5793661585423315,0.5789500900999291,0.6151365790549619,0.6119599228725248,0.4908351806596993,0.3577232409526294,0.2201467925836793,0.07967271428024958,0.0,0.05025864321556472,0.1690165902892531,0.2959520324719627,0.4116902407163092,0.5194643464523779,0.5958248641948165,0.6145503784027708,0.6438515613579288,0.6649391559683062,0.6994144455182187,0.7074799393828544,0.6735895324702099,0.5940622154575808,0.5375756240330372,0.5351746283886065,0.5747538659253157,0.6028897545871326,0.6240322976221844,0.6156082682636672,0.5834656703652472,0.586415923054469,0.6057373976937468,0.6066659772654353,No
20,0.5882741729622443,0.5997587665131832,0.6361617387800753,0.6560460899142133,0.644247269067665,0.6222503379495703,0.6244442088866222,0.6144928805661065,0.6060769215474466,0.5834036747740234,0.5377514804499053,0.4732173362925773,0.38885882711096587,0.3223571012176301,0.2489291182055773,0.29239912272892665,0.4039066445082642,0.506372563267393,0.6108319969898437,0.710179967304053,0.8173405184289599,0.911305463640138,0.9472847092817244,0.8806593247335233,0.7999802543635712,0.7146889012535076,0.6203150944244862,0.5825426063845587,0.5758186429126342,0.5535688114623305,0.5195272745212249,0.5152114859057293,0.5242871161142162,0.546380498367105,0.5590007497222302,0.5640196321007779,0.5600364825331883,0.5547129789488205,0.5606932003133518,0.5509281259413208,0.5504712656317161,0.5412826713025458,0.5254076269924632,0.5224218314923244,0.5322386696193844,0.5453929456552196,0.5419361899923039,0.5485274526888513,0.5473584713296864,0.5867066348905126,0.6302633667732902,0.6935300476042778,0.7345795422064358,0.7129935397992169,0.688164502911921,0.6772529717484628,0.6599742772232782,0.6489161225795272,0.6271745769686611,0.5801286834456372,0.5141045184713113,0.4262208217486148,0.3502896030933109,0.29733224325399643,0.3606718248125405,0.4735420163214479,0.5841818499080347,0.6836585389982388,0.7902960985016114,0.8904240027907266,0.9833277089662888,1.0,0.9152833901349936,0.8164315286731121,0.7192518833478863,0.6838869598755148,0.6724497841528256,0.6319783257810045,0.5966562127200721,0.5743147647895834,0.6062092159146126,0.6317642081137094,0.6373755321205334,0.6381880421920929,0.6309041550807439,0.6360409842487855,0.6361942903770905,0.6294334365123655,0.6189350822467241,0.6038503231085888,0.5986659176905458,0.5820457277816256,0.5808866846415288,0.5993835779258805,0.5889467137904605,0.5886199918974375,0.6020179993552146,0.6329254115104779,0.6578685475092265,0.6569708743285125,0.6458370930189989,0.6229580042598988,0.6167450262469352,0.6090494430785589,0.5936618687144422,0.5610742959727584,0.4985988134917361,0.4083323879317233,0.3167360027764152,0.2421021499015512,0.2797451169235421,0.38321153053623336,0.4847744710587429,0.5885960636623744,0.6926096621040116,0.7917780893530201,0.833053008203537,0.778158634145715,0.7627234172236661,0.7361456470316736,0.7033659874705305,0.6683329764841996,0.6337106384918552,0.6337332631095429,0.6734262179153108,0.6803680865435431,0.6793429629016692,0.6761775586873973,0.6569556045926119,0.6300584824997421,0.6014963233778512,0.6069063742519227,0.6083934247885514,0.6027293841956838,0.5996430911916235,0.5648211952675135,0.5662369012624295,0.603094462515418,0.641359355678913,0.6692212999866127,0.6722213711419833,0.5991667304833324,0.5629873327233326,0.5006707704526723,0.3921196143824592,0.2923605952416719,0.18617494131379694,0.08512171589734896,0.0,0.019470646070756104,0.10204374149283167,0.18474043330890888,0.2694373406248891,0.3469254284364647,0.4348198891011479,0.5012098248016712,0.5346350681629515,0.5431557178064099,0.5526047436925148,0.5742119872802491,0.5926505915098081,0.5898756384128294,0.5571919470893687,0.5217637922953595,0.5209007547082667,0.5257094577855996,0.5383692993107747,0.5190330959433527,0.5087596951152284,0.5234319735768991,0.5380824987208426,0.5501202217241641,0.5550799816933591,0.5730750545315657,0.5755932643848451,0.5646357532449318,0.5729258314088823,0.5616572435525717,0.5380982298742594,0.508896620086797,0.5165039199248747,0.5452242895922881,0.5931157457942438,0.6170985645853282,0.6005317846592906,0.6110219960619392,0.6853919560503319,0.660526770778469,0.5594872209083714,0.4559231364527938,0.35638239783415937,0.2477206279706849,0.1620663863374614,0.1635047908820244,0.23442153835097645,0.3116322937555163,0.4050905454365093,0.495312237890515,0.5551402460082788,0.5810826350600133,0.6044723170418402,0.6178332916902312,0.6256936884402129,0.648548899603318,0.6484706231193207,0.5850577092813536,0.5390797909324392,0.4923368278969624,0.4772099931829321,0.4841111839849237,0.4765547266245895,0.4728026254942082,0.4603396204323356,0.4555171493393768,0.4533509597891503,0.4778934288624219,0.4806642092730189,0.4851087916290333,0.4909691044249813,0.4743935621490003,0.4861475949791094,0.4928521676424524,0.4867342379920054,0.4715083269142264,0.4273735598607429,0.4309486486838981,0.4534876369680978,0.481549101015514,0.50825276292974,0.523473778260497,0.5477096714876728,0.6254966365131409,0.6476872163710352,0.5584115279285302,0.4572622592324866,0.35098803304780457,0.2394432609651962,0.14049953744473642,0.05873018605172176,0.08916321499095536,0.1638551203568892,0.2460904405121691,0.3345845745911729,0.4224726552321245,0.49439109278214394,0.5295889693659284,0.5345405594373438,0.5569754492314916,0.554517464054467,0.5608327671623221,0.5702533622252691,0.5657032317358723,0.5396955887437502,0.5142045798211337,0.5222410850540173,No
21,0.4362323550440732,0.4351306676627567,0.4615878862718517,0.46765385090668105,0.4486117926098845,0.4420015552833356,0.4562390179432625,0.473926949830561,0.4601248305287329,0.452356909226641,0.4450295581982995,0.4126819110028168,0.36452380321054223,0.29225117830517844,0.3365830107691559,0.4671425200503783,0.6100869312926407,0.7357309719167459,0.8759097426379916,0.9929509973119788,0.9867811668124592,0.8808156655398593,0.7580466813854367,0.6336723037261307,0.5276760799892037,0.47305813937187796,0.4898648664960272,0.5188047920087766,0.4717289699784826,0.429734311604784,0.4295290505450873,0.466332974904542,0.4755147792908265,0.456353919740033,0.4411994617810708,0.4296003546717624,0.4421336713644704,0.4415459440745377,0.4293852196024912,0.4291885559610305,0.4242121297404773,0.4050648693045607,0.403419721286562,0.4071780744251572,0.4462704949279304,0.5005869186775604,0.5199161375356511,0.4876142737575031,0.4672928676008552,0.4798046496153874,0.481772406510252,0.496283668319164,0.4658312545230259,0.44608287845637706,0.4214815301001385,0.3721644330481406,0.3111205363532936,0.32928250645292895,0.4617909890982274,0.5925253231716394,0.7265665370784693,0.8693930064531751,0.9836247588936468,1.0000000000000004,0.8908499557487386,0.7696736441164567,0.6494070780999324,0.5457429988229499,0.4897595686657241,0.5225514990176534,0.5229851374263101,0.4727584231314777,0.4245581393305424,0.4504053579839327,0.4897046903527946,0.4862940846158597,0.4805842924817756,0.471901775717337,0.4780448998274332,0.4650819270465836,0.4769535192681898,0.4728103171212506,0.4732850427180337,0.4697115924029993,0.4470131200924832,0.4582644480156453,0.4673369052058906,0.4576950795500943,0.4725197765127391,0.4803382756456043,0.5025416316315217,0.5121647758163559,0.4830769596155329,0.4781293838799479,0.4614243112595209,0.477742056477338,0.4726508944158749,0.4532079037928925,0.4107755011788039,0.3648123501969196,0.3051071401658372,0.2565302511460632,0.3207292560572035,0.4612783543323098,0.5867218842721686,0.7279370848690871,0.8685223815952869,0.9720844539139032,0.9602286575655596,0.8465792694735721,0.7174604436988257,0.6012361949878895,0.5083530859005507,0.4971837551896141,0.5349927010317752,0.5254299024291309,0.4597632336924096,0.4153777056080972,0.4568855432575902,0.4944839070999589,0.4915383704253755,0.4872959113016173,0.4828765779406603,0.4943098430401176,0.4756919476253762,0.4679168537784224,0.4548678815454736,0.4298508931240712,0.3809813921498226,0.3862591322803293,0.3930619030808793,0.3951079266150823,0.4121874406949382,0.4048891890255306,0.40465842954388653,0.4000573922641588,0.3737493313107394,0.3233125457313242,0.32416677527187643,0.36601848167373374,0.42744124301151976,0.4155224229604131,0.396255785363612,0.43745703258291657,0.5351220659083036,0.6556096697659091,0.7359468659580428,0.6309584437404534,0.4909536480920749,0.3650842735520823,0.2231025790127954,0.09775540071845913,0.0,0.026574919683779008,0.13393935401475865,0.20904378711538607,0.2804076978687439,0.32886065636002604,0.382529259641601,0.3929466724866315,0.38300686900766795,0.3780853350591849,0.393883481602479,0.41291813129675736,0.4247033691435438,0.4157415506412892,0.3926716640040042,0.3761319000992942,0.3901677603222651,0.372487118498952,0.3685057593164607,0.3813046292358284,0.3826403015552837,0.3929201000987788,0.3883760862904509,0.3864054098900929,0.3933181623355631,0.3990008971896439,0.3936266872652889,0.38987418017185016,0.3533265965238725,0.3202278813140258,0.347039924204442,0.410163678998551,0.4331787468724486,0.4194508724119603,0.434302651767656,0.5174537408283686,0.6399736202763413,0.6824053416727565,0.5590273672864057,0.4294863548780774,0.2942515617993897,0.15445056120137354,0.046675379277886016,0.030687894197265475,0.1278982631705845,0.2127547060482553,0.2926838183162652,0.344536670665216,0.38187902956749786,0.3929977042363508,0.3931047287312501,0.396509433313041,0.4003130927380254,0.4012789832380919,0.4281756564426442,0.41854549143136976,0.3551920677290297,0.3261788842702207,0.336698664679147,0.3321157325238011,0.3193829701659445,0.3385535386824601,0.342170436155286,0.35160574917737586,0.3536527382273209,0.3495614297107923,0.3265527523217364,0.3533211848431175,0.3539616925069251,0.36905470072342217,0.3890183109206604,0.37715505807415495,0.3300186181956355,0.3318744586391156,0.3754523110175811,0.4063122653839595,0.3831369059361154,0.3849981542751322,0.4311531393122796,0.5258030058373095,0.6535962822508865,0.7000488447047757,0.583963182395991,0.453550222579517,0.30985764743651645,0.1827185399317206,0.06209793037570632,0.02206217161821611,0.11004731716371996,0.19586632275078708,0.2752096948868732,0.3427269071637702,0.3664399868491723,0.3776550117488031,0.3781614832179048,0.3768595502540957,0.3800246393934539,0.37034844467087824,0.3796976796735368,0.3873480875497815,0.3643945966441966,0.3472468247207847,0.35225494666285906,No
22,0.5874567879433368,0.7004871373351156,0.6989861814122609,0.5727599978465854,0.5763729580007126,0.6072582232624608,0.6654602390190796,0.7019981071728303,0.6581105207803848,0.6469446791571931,0.7283710615632932,0.7532627256111004,0.7535082847175296,0.7574219653182128,0.7613594079153376,0.6798749232254071,0.6586908662233729,0.6021432228632282,0.5471767908797993,0.4900118856653961,0.4424909817023544,0.393972738013562,0.4420503524025952,0.4894998505231927,0.5379737765069637,0.6415161372396376,0.7318563835729774,0.7889112918907726,0.7820256450901404,0.7527089561595552,0.7215372070176711,0.6989956689038808,0.6556980074939505,0.5914213326098192,0.4647600442468693,0.307266561407765,0.3750701309931673,0.5571268044685675,0.6991352633736323,0.7927893179969265,0.7733330972916308,0.6762421434471859,0.6540392546963352,0.5780745236988585,0.529132001369673,0.5069675952500194,0.4115677124054917,0.4020021565853691,0.475529738946813,0.5641297429680989,0.5860179962057437,0.6130731504975193,0.6871099123647912,0.7485931357675257,0.7532322400687317,0.7312479433417343,0.6970704070910339,0.7392676535574161,0.7492366792920562,0.7396101701168201,0.7073343248927273,0.742738156827766,0.8115998913266704,0.873861391454529,0.8619277719188663,0.8116810638510179,0.7914117004271679,0.7438664619900806,0.7447370195667578,0.6882486882047427,0.6029625961642973,0.4881655543613217,0.3485850317546557,0.39848456699786894,0.5418054296979218,0.6868942008242165,0.8151811777382498,0.7830136677408452,0.8028694204209401,0.8522761336715572,0.8490522226780746,0.7800557295361763,0.7009141177247615,0.6426724864546713,0.7080906764658996,0.7866783817767447,0.7660402440501572,0.6589121008177985,0.6116353635400058,0.5862868813825388,0.5723594646865786,0.544869162593419,0.5331808322419187,0.5133971911453452,0.5338263039015647,0.5256509598045183,0.5642813442301797,0.6592993255995765,0.7515432787535099,0.8428270193768004,0.9369946248314144,0.9999806725614916,1.0,0.9637149848092204,0.8886975438596707,0.7839166416405803,0.7033863980776269,0.6062694165448086,0.46855002866885,0.316895464077672,0.22256466301999644,0.3706125504429272,0.5150855441003621,0.6775164815794329,0.8414458739690138,0.8948437541132916,0.8119494671721599,0.7921158761816507,0.7418373504156932,0.7273511809609632,0.6581849765583847,0.574503719151501,0.5877927688275557,0.6932893316011048,0.774565642786718,0.7932025837787648,0.8235997253301939,0.8176371444121306,0.7556837647994543,0.7034912361055428,0.7052707083699916,0.6583320669310435,0.6259385358551324,0.5264812842092166,0.4296656822549085,0.3826288379377809,0.4565894841542413,0.5393606850697159,0.5845716757509587,0.6447389641030616,0.6442511945819129,0.5725581406051168,0.3970684386250048,0.24118166176327185,0.10763289314513448,0.0,0.04809174402245553,0.19716399369798232,0.3533152581443382,0.496844560877121,0.5878912009115718,0.6805375587052023,0.7776026494864894,0.8547555823138202,0.8585139787693725,0.8134160571805449,0.7141362611316815,0.616800112956942,0.5155701637854557,0.43111686209161615,0.40179980033517104,0.4078092047918709,0.40502740285043615,0.40133676218391656,0.4178996240156083,0.44249449986477,0.4468443510999629,0.4835089652413611,0.5248719658745973,0.5875977605567311,0.6228312454282348,0.5394834461318503,0.4550430652605586,0.5074225516878972,0.6009241300383525,0.6855926348629877,0.7231201057820265,0.6834679826343191,0.6105226906399511,0.5232601035602658,0.3561889643367033,0.21835137003255856,0.1624254814237096,0.07745973032236364,0.14637157612132068,0.3093864205419523,0.4571751647538012,0.5562225336917761,0.6058332280358867,0.6483510423834362,0.6758424347107725,0.6810357944015566,0.7308651729929991,0.7098520692876589,0.6400625217761329,0.5777517146522229,0.5954644150446686,0.6234789233059015,0.6207039563298746,0.5759296132054139,0.5902941263999946,0.6397824793179909,0.6343103069238456,0.5500728000364967,0.4921574128828068,0.4511189851197255,0.42998586375210746,0.3440528812631358,0.27352897597637416,0.2429944188571413,0.31299991303071817,0.39253929630979467,0.4291639723246279,0.5208881697162697,0.5488198859499827,0.4796285959410573,0.37743783734428415,0.2694725316558149,0.12081733153835915,0.04887125470039155,0.15565884721904855,0.3142802686301627,0.4521147790397064,0.5343199963333607,0.5687607728462609,0.5911030339591425,0.6273481780764074,0.6619640471499464,0.6542210779806306,0.5665342900268264,0.4519130922206181,0.3920134045069768,0.3532893673875375,0.2904580758939739,0.2520230570055357,0.30207268103596885,0.3656601590238289,0.435299634705709,0.4803177385326869,0.5247781727322236,0.5806688966924805,0.6102978239754648,0.6110455560326065,0.6255363199169697,0.5977761389776726,0.5195049377515595,0.4976471489417546,0.554676185362303,0.5212644372306494,0.4829321913048945,0.4470267217280179,0.3914991123845626,0.3255686573389811,0.2181532608724668,0.09113082973206144,No
23,0.8424002619327875,0.8161298243388555,0.7620467815368701,0.6830367526432535,0.5980211072465043,0.5155155771059645,0.5248462054972087,0.6240073107145547,0.7074091273921628,0.7787196339979237,0.8554187700699369,0.9052068551530216,0.8853464588385673,0.8633638532701324,0.8577548938810078,0.8324111027406893,0.7879848400822759,0.8023609054547007,0.8467422276292096,0.8540562792688227,0.8446699867576841,0.850576340054797,0.8430131261260579,0.8510083071601295,0.8387728246012562,0.8543586546006892,0.8736843061834016,0.8933128721311836,0.8993527321113968,0.8669382053436028,0.8176982221732207,0.8030765669770132,0.8536261789861181,0.9059447332438402,0.9393838241855792,0.9630630051023764,0.9675983755837284,0.9546682540569732,0.9213739679622068,0.8567359880152314,0.7798910540303212,0.6946547360568327,0.6083995273494076,0.5630446430359708,0.6430939389444275,0.7501658246615581,0.8556225983710148,0.9416897440178199,1.0,0.9863550980907644,0.9324779430221004,0.9140892227049552,0.8836566988667944,0.8407542506548502,0.7974839567524632,0.8155222674737148,0.8355846504373536,0.8097651363210541,0.8042491743329538,0.7932289629193591,0.7685970857210092,0.7470980863545491,0.7246613665551025,0.69991045616886,0.6800312598448075,0.6639038646710356,0.6311956494955204,0.5798491995085242,0.540788073205662,0.5581919394658335,0.5981619385034427,0.6286809419187298,0.6311309875538469,0.6202999285764821,0.5998166918676167,0.5558926498656391,0.4930166441427164,0.4072594620407188,0.3162510949027979,0.2344306375354184,0.2338044525097529,0.33287035853512403,0.43332417193443495,0.5263975669531256,0.6030386808241626,0.6414890262395261,0.5955031601010905,0.57258589947384,0.5527957073285923,0.5064225992068279,0.4643815220358136,0.4508433526165656,0.5050022768759663,0.5249085698350382,0.5347791665085468,0.5361004158384088,0.544453882130365,0.5538403938944461,0.5619769619367571,0.5604521493003638,0.5797819808719926,0.5925383296321609,0.5643616452136611,0.5212718426721481,0.5264127717925309,0.5807454333971385,0.639881475286165,0.686230114666186,0.7198695200777498,0.7404538119927242,0.7466505891141351,0.7608016646980666,0.7243117353459381,0.6427951018525655,0.5786415304960904,0.4980022643568463,0.4163498087505806,0.4079487973577671,0.4999339509270993,0.5846490039355774,0.6734030827371593,0.7680099926618373,0.8507068930972155,0.8912953499261715,0.834827028898018,0.7492148746327185,0.6469258852612234,0.5618907365327805,0.4610861644611637,0.3579294515977689,0.28479013926609564,0.20296099963335168,0.1703747539893743,0.2380430284522697,0.3022644766495053,0.33581905536784,0.4291744324448574,0.5336929555969259,0.6081906483433546,0.6805113348486693,0.7028869316705233,0.6871132603585774,0.6738215464584054,0.6354607716123049,0.5843624526903746,0.527328098364491,0.474457659386534,0.4557300659996226,0.4934561629188878,0.5303168524835105,0.5307386486327679,0.5122944266657301,0.5053036714775243,0.4985860594165618,0.5012904747964549,0.4870842246365683,0.4870008036075539,0.48201380043942293,0.4615588649716345,0.4074341315637589,0.3806527949596772,0.4207087207711755,0.463575254901162,0.5086053639221895,0.5310924297196831,0.5359848265253633,0.4605173251255907,0.3610831416343543,0.2622849590243672,0.1597216546532425,0.06502196142978732,0.0,0.03441084925178295,0.11968647471596472,0.2093309932920424,0.29960355507945025,0.38573948531503977,0.4659028615124417,0.5290408513884222,0.5590650506638735,0.5766414462529226,0.576567270552323,0.5510355216256944,0.5080679815474007,0.4837302640723613,0.5043522344228464,0.5520525182560845,0.5988761860142762,0.6287263550569162,0.6496657897329352,0.6727085715125516,0.69424917344306,0.7182668856934886,0.7403528213101742,0.7484751809637742,0.7666988169309739,0.7647227118229427,0.7292251612534186,0.7364484808608576,0.787595502970917,0.8369732886850074,0.8613011465237839,0.8939924344001251,0.8882088590837021,0.8031897426524908,0.6988221948271449,0.6032490774377877,0.4995902159962125,0.4085705811427185,0.37831703237151293,0.4475544162614131,0.5307686851681286,0.616001410458126,0.7018042601939265,0.7849898636177453,0.8617647978235374,0.9013117735049518,0.9178813454833851,0.9109012101847416,0.8887821966074863,0.8454534131157194,0.7930990332325645,0.7451482552578019,0.7479387962756339,0.793638382384958,0.8313265092473641,0.8307591011232476,0.8104642379431342,0.789691211139008,0.786351755650788,0.7856809032419965,0.7903235559011721,0.7910658112150424,0.7979392236482687,0.7829002955021259,0.7345032272244238,0.7122311105405239,0.7535242933226431,0.7900575946494106,0.8063259980425022,0.8189009688723297,0.7925688656579868,0.6975488029185417,0.6020414431687175,0.4975811487589774,0.4015922756821775,0.3053048345813254,0.2625044438614941,0.33353204581930385,0.4214278632003401,0.5095615609346429,0.5912184867299048,0.6749527215094067,0.7464356666457821,0.7846844183756421,No
