,0,1,2,3,4,5,6,7,8,9,10,11,12,13,14,15,16,17,18,19,20,21,22,23,24,25,26,27,28,29,30,31,32,33,34,35,36,37,38,39,40,41,42,43,44,45,46,47,48,49,50,51,52,53,54,55,56,57,58,59,60,61,62,63,64,65,66,67,68,69,70,71,72,73,74,75,76,77,78,79,80,81,82,83,84,85,86,87,88,89,90,91,92,93,94,95,96,97,98,99,100,101,102,103,104,105,106,107,108,109,110,111,112,113,114,115,116,117,118,119,120,121,122,123,124,125,126,127,128,129,130,131,132,133,134,135,136,137,138,139,140,141,142,143,144,145,146,147,148,149,150,151,152,153,154,155,156,157,158,159,160,161,162,163,164,165,166,167,168,169,170,171,172,173,174,175,176,177,178,179,180,181,182,183,184,185,186,187,188,189,190,191,192,193,194,195,196,197,198,199,200,201,202,203,204,205,206,207,208,209,210,211,212,213,214,215,216,217,218,219,220,221,222,223,224,225,226,227,228,229,230,231,232,233,234,235,236,237,238,239,240,241,242,243,244,245,246,247,248,249,250,251,252,253,254,Target
0,0.0755768488600066,0.10304239825985716,0.1329418834284275,0.1642613953835883,0.19600713345654075,0.2259168172716426,0.25526720750176857,0.2792707667093628,0.30169960592670275,0.32324570589575563,0.3451603927136542,0.3647641184075761,0.3798859627024571,0.3949625613384029,0.4197052281604947,0.4554006995681095,0.4934240151706286,0.5348754985671638,0.5730678661105952,0.6149492148886746,0.6596292025635115,0.6984411425168264,0.7396450863523705,0.784465610913643,0.8291302200462323,0.8675876545548837,0.9091633552532336,0.9525579694994072,0.9765657442470256,0.9596084416052066,0.9208986658754515,0.8810468137971299,0.836271833023748,0.7914246556747021,0.7465775600323015,0.7020588405330213,0.6642412614466722,0.6218883614361248,0.5770474156743062,0.5322008333389243,0.4881819820439368,0.4543570551727456,0.4289379859408469,0.4301865716489404,0.4379346156589603,0.44560530544166,0.4472593874131941,0.44312686127256384,0.4280208183574272,0.4121965703384163,0.3982706340196807,0.39561843743225467,0.4114839172403568,0.4248125698961029,0.4223813294324473,0.4177913488632854,0.42226538132790825,0.42770432978979,0.4344989009253932,0.4433279660982199,0.4472445181711775,0.4472805125364596,0.4469934481156017,0.4385804587830917,0.4195701596305068,0.39603349482238537,0.367030851083942,0.3366476254349935,0.30333432490853474,0.26893412846006304,0.22912504643637302,0.19489592055095994,0.15917649961608935,0.12335546702986645,0.09170344170645284,0.062178287938076775,0.050199563928048814,0.06998444107093271,0.09944927496067746,0.13445799235032307,0.16464183596862705,0.1944738396423351,0.22196973988127836,0.2507765896563037,0.2756816143951373,0.29893118894969795,0.3250599933313256,0.3440890298866386,0.3635385537047737,0.37572614878237603,0.3922068875536926,0.4188041835305316,0.4497922127900607,0.4857387466484222,0.5269093272266718,0.5640170066303462,0.6077845250636471,0.6524270250092492,0.6907518200982332,0.7324808628415265,0.7773132593536591,0.8218669574373225,0.8598983321362905,0.9020079002937218,0.9462457711878324,0.9794945618874268,0.9818458238655408,0.9502735195242368,0.9079823057539074,0.8631414780733857,0.8182943007243397,0.7734471233752933,0.7285999460262478,0.683752768677202,0.6389055913281556,0.5940584139791099,0.5492124355771073,0.5053675332309221,0.4683298441614458,0.4316845757192225,0.4126463746156317,0.42285494433572857,0.4289680799974585,0.4369613027976416,0.444387263730238,0.4384392301845004,0.4197026229784697,0.40495300927575983,0.3934452386380247,0.3836400983572554,0.3945249418181702,0.40616128915562943,0.401302512295157,0.4051495088001136,0.4088425710466577,0.4165719584974048,0.4180958291993928,0.42523580891602375,0.42755296533971504,0.4264560636947921,0.4179705954667876,0.4061905822770917,0.3859579283412402,0.3615416642998832,0.33263270381475096,0.3035836690221629,0.2678876663144223,0.229029547599694,0.1929996538126224,0.15709730182212026,0.12310993939439352,0.08733324607715343,0.053474154737565234,0.0205391702344615,0.0,0.01818929276740611,0.050592842962282836,0.07927483977997407,0.11045653559627322,0.14079846732356094,0.17069697910899428,0.2003935276837825,0.2274588618609989,0.2543785524060036,0.28328300624921954,0.30758709317701904,0.3300206766834595,0.3527556147308689,0.3790347277181017,0.3993573545631652,0.4197373273124896,0.444162678677734,0.4757280448109511,0.512363230987253,0.5526535897580198,0.5918540316708967,0.6341882066681972,0.6719377246432077,0.7164217102952526,0.7612198346026731,0.8013864781879072,0.8411794503064459,0.8859511646860214,0.9298930643501896,0.96688364946536,1.0000000000000002,0.9935940989613156,0.9535823598656494,0.9087618826180984,0.8639681883468151,0.8235217436498228,0.7839835646052256,0.7392318199667479,0.6943846426177025,0.6495375179240495,0.6049802483254612,0.5669270994488904,0.5248454194312413,0.4802692282529162,0.4484817365662166,0.43715821472654337,0.4521592072019733,0.4599770486259485,0.4667974211570656,0.471829577068368,0.4681922621438202,0.44770010336960464,0.4317952288640574,0.4184438442748235,0.4049556295148706,0.4164810911465207,0.4341428867911894,0.43740769108395416,0.4374219148156013,0.4374378765611444,0.4402547236595253,0.4410181907554158,0.4467925007716997,0.4554367429113151,0.4571343201085008,0.4554108619974904,0.44674390347219095,0.4365110775437768,0.42154120088741853,0.3923107202063712,0.3618152865249986,0.3316913722724526,0.2985088567331589,0.2626790075969743,0.2289228513517818,0.1960173442175439,0.16251243734256238,0.125624282366934,0.09195242492841847,0.06001431877266473,0.04302018320777679,0.061794336756256125,0.09038647578190973,0.12438864112881265,0.15755610892174898,0.18865950737036094,0.21599715484721105,0.2353697691358254,0.24504236857210504,0.2688149629310943,0.2737064028893661,0.2773659632835741,0.28923866465397685,0.2897282143012936,0.2990454976428092,0.3207421328538309,0.34306130902724186,0.3620789334235908,0.3795954155357766,0.39129893910450303,No
1,0.6852630049944329,0.6769842565965944,0.6714745786072407,0.6761944890150751,0.6918451241324812,0.7014341105938384,0.7090144039150745,0.7199714429554147,0.7300574615457212,0.7310005568933291,0.7306569149916102,0.7178370242474332,0.6972252652739708,0.6876698453170487,0.6951250409651748,0.7246315432137993,0.7478555018576936,0.7581210315753029,0.7648665056997528,0.7355019477234221,0.6873067095438679,0.6376237816283163,0.582931738653782,0.5300421981909305,0.47794936875958,0.4225961881273999,0.3727492545072573,0.3148592260091212,0.25683137569956793,0.2067341139286547,0.15164158730472144,0.09328441072721083,0.036723141550699216,0.0,0.02271818062472164,0.07213458464502097,0.1266987707070344,0.1850561848913832,0.2432673957416005,0.2946291495678557,0.3483006258986663,0.4066335827180154,0.4649005093134633,0.5172160619049373,0.5699104414533822,0.6282109774416136,0.6865870930490787,0.7444136603070078,0.7939944499697371,0.849796222819982,0.9081646838846656,0.9663127735832048,1.0,0.957404864548939,0.9083323345780476,0.8537501533621601,0.8052243351672144,0.7592553335404681,0.7239119389102324,0.6960561630835476,0.6784161941681817,0.6641164837984055,0.6374667427652847,0.6082844549116535,0.578982679785804,0.5450946202742617,0.5085137900550749,0.4715656985900052,0.4346649100163895,0.3915821930100128,0.3479528283746873,0.3077310309359289,0.2688449788501384,0.23235625273144025,0.1986161513385896,0.18657723623082376,0.2101856090725598,0.2467363755391403,0.29014702049919805,0.33527216131756604,0.3819441130702164,0.4291950684120218,0.47712154889458097,0.5219984421045971,0.5676934588998723,0.6093946200172187,0.6518670863172065,0.6795332784590724,0.6909986247857034,0.6835871666999669,0.6779273556272014,0.6664392317580292,0.6595847543227886,0.6610951588493332,0.6757375007246407,0.690670842518947,0.702311007422904,0.7116175011709718,0.7192612654042239,0.7276176089860442,0.73038774329877,0.7183646100154101,0.6983900781743473,0.6890459285465587,0.6963333258179993,0.722136702491369,0.7460048120898158,0.7546425572652016,0.7488655243988465,0.7076561901689624,0.6583452962627794,0.6090713993777421,0.5538191635551686,0.5039006632355107,0.4485786508327234,0.3902152450470087,0.33210631555590964,0.28139049049987563,0.22698642121250456,0.16864757633659044,0.1132244219013714,0.07497038234153508,0.07852163659138701,0.12456267112418673,0.18249314816551654,0.2363106768405845,0.2875534261765373,0.3457313728954101,0.404085300830505,0.4588208495762209,0.5092388478653449,0.5673087676190072,0.6256767146231257,0.6812470924923046,0.7310209264492089,0.7888863088057922,0.8472129957785222,0.892367094249479,0.8603802199896093,0.8071165989548565,0.7606834277304664,0.7239334781546654,0.7033714488606342,0.6848513249529333,0.6642274080968043,0.6407482298544835,0.6134782352141093,0.5880639029896029,0.5586133331990222,0.5189045550928217,0.4769053002622399,0.4347916541815562,0.39286265492323147,0.3517133526459291,0.3098942692344666,0.2672820855488525,0.22451342175590214,0.18478630613678604,0.1405749026733185,0.11440212116362035,0.12218288296946335,0.155752778180686,0.19865138686247952,0.24347263816785605,0.2923654384189041,0.34143436926013737,0.3920651971767579,0.4443959573992944,0.4933669819898174,0.5379592741945132,0.5820746804481036,0.6275221454841848,0.6659772613018649,0.6960490457387847,0.7131609384571398,0.7113368955509922,0.7015638232482728,0.6856527134456047,0.6748895197232969,0.6809750677414423,0.6834445847562349,0.6908634134527873,0.7053008798075218,0.7185600558449101,0.7293176262530516,0.7348210667802646,0.7444788644288329,0.751305855977562,0.7386816978082003,0.7215194590338645,0.7142642166371598,0.7330812962642423,0.7563771197596791,0.7762030377212596,0.7888309348747051,0.7860969150075512,0.7521582378559875,0.70343920861573,0.6523447061128762,0.6029830137650707,0.5453572243466498,0.4927989300143256,0.4403509053721275,0.3820762400477542,0.32370144600297057,0.26664655863820386,0.21754859457775155,0.16050170213574866,0.1048257113222828,0.08382948933660161,0.11965459383848233,0.16868808613636774,0.2264481276211649,0.28275935471342817,0.33209732724506336,0.3896542794148323,0.4480283983176596,0.5049862894077466,0.5540400169204627,0.6112325124859692,0.6696075719132013,0.72759755067535,0.7778627105142872,0.8328240758931011,0.8911845371761538,0.9479920521479775,0.9564919532465286,0.9101312488345772,0.8552688489370222,0.8056576000154334,0.7620738067405264,0.7302443275796962,0.708679453230125,0.6869884716354648,0.6674688309692165,0.6432688196005527,0.6103118405042602,0.5784053026377265,0.5420912131449651,0.5037040490288687,0.4659158024218952,0.4260168960171746,0.3812514939157321,0.33290975789194577,0.28899161530058426,0.2452474866195844,0.20396361177256028,0.16187830776078482,0.12283536661821536,0.0886924449422466,0.08056711024407147,0.10800083282758988,0.14930205700010954,0.195458512846608,0.2413122790740978,No
2,0.10478800784709164,0.11703493766662032,0.14264945342162616,0.16714601825120845,0.17214504822480492,0.15049370932119166,0.12218235696477198,0.10518636627623357,0.1013973451679695,0.1133871958367494,0.13153813205893414,0.12107765066360165,0.09695907253236492,0.07167556809265208,0.045537712236825234,0.030126565337727732,0.03205280489782236,0.05168036541651366,0.07917659071124382,0.10955294683575267,0.13880399703074175,0.1677756279203061,0.19440743156236173,0.2205738021494136,0.2427815451772787,0.258449659763761,0.2668335830946532,0.269400003363811,0.2730643975888708,0.2813041867754417,0.28532644623974035,0.28728196232547754,0.29032313808867605,0.29146083179886395,0.2913650149951145,0.2852679947906064,0.2680479384282294,0.2505163942148726,0.2475509219510789,0.2686973169926409,0.2957705849435569,0.3149572788191296,0.30812288084078604,0.29751386035798355,0.29169266399869354,0.2878869270499739,0.2838229208189015,0.27960946873023873,0.27992443651755583,0.2589383327836884,0.2285462173698071,0.2104636764171132,0.22824273490330216,0.2622772000921746,0.2938584031668784,0.3300864210521638,0.3665844366767829,0.4021646106300528,0.43330692512254776,0.4691454899110797,0.5055038267141375,0.5353990296478445,0.5646786438193409,0.5932615728835048,0.6212597186672383,0.6535470742754695,0.6899399428605336,0.7264397303079423,0.762939492691053,0.7992817866702749,0.8313141631016546,0.8655144630968777,0.9019979920795956,0.9384469661558812,0.9715486537458836,1.0,0.9878084519586032,0.9518075211636886,0.9154673642682489,0.8833554025095344,0.8492782703616718,0.8175408559123599,0.7897214208213233,0.7536347424877521,0.7185202612055551,0.6871740576020132,0.6510719047869541,0.6145723728069387,0.5780725853595295,0.5415727979121207,0.5050730686785664,0.4688038449908051,0.4370554963508891,0.4025062421228728,0.36720295343393705,0.3421576797601654,0.3162052496993707,0.28505874611741244,0.2562477372269537,0.2327078467138236,0.2147725181873822,0.204084776077588,0.19741422643967846,0.18334643214016555,0.16303899653078954,0.14147455095864991,0.1142014826469494,0.08961248261099508,0.06527906976429487,0.04094639742857609,0.017167495188749604,0.0,0.00039224762426293136,0.021207735269059943,0.046857208085215984,0.07429698710408927,0.10326185318716652,0.13244308145874018,0.1609361702883919,0.18708385061337085,0.21287667107400787,0.23331753621080786,0.24105501706049404,0.24329619657735024,0.24901681014823274,0.25272745819362885,0.2550572093801749,0.255265877384378,0.2501817803991554,0.24961689453779626,0.24300319111997715,0.224655614038738,0.20796160306943634,0.19706345540496872,0.21126476030404173,0.2381692104696317,0.2634277280368261,0.2721914905010899,0.2580425481333931,0.2502351982797594,0.2496509577113667,0.2452159502294614,0.24288957839818914,0.2408343830385077,0.2241372963239482,0.19460871073637376,0.17072797487278668,0.1795104396742534,0.21259661003302355,0.24747201165650226,0.27895639736909816,0.315143576071942,0.3516432551768999,0.3881427446367137,0.42421263317673097,0.4555010667161629,0.4907052221647025,0.5272015169485526,0.5637012615295768,0.5999647357198449,0.6317527232384349,0.6662701288437746,0.7027597787202059,0.7392595661676146,0.775726455299311,0.8093751589481833,0.8416911967296065,0.8705399123413934,0.9002439033830792,0.9082684902233964,0.8777185651333502,0.8452951957914548,0.8089112737100651,0.7724114983905429,0.7359120016104371,0.6998865825780173,0.6685798937896651,0.6333499971340292,0.59685323661889,0.5603689731289264,0.5261306204604898,0.4941292685680657,0.4578382206618407,0.4245113326726694,0.3916650880094464,0.3567372905450371,0.3253638308709857,0.29245533094173004,0.26217545270648995,0.2385209656023207,0.22065726318511347,0.2096569913048435,0.20750871917549865,0.1982481627351073,0.176279902848829,0.15495406762605224,0.1310925260765804,0.10678815911126582,0.08448461053212597,0.06359332632412606,0.05028041250002113,0.059112336652269885,0.08152988316842091,0.10783082807591282,0.13673675663665594,0.16577917761153438,0.1933255774338628,0.2220089030596953,0.25135706515934986,0.2735961836515325,0.28763485469057104,0.2914179834527909,0.29146351614171817,0.2914635161417204,0.29145990800376004,0.29014637610742666,0.2849465762122735,0.2845206190287716,0.2832926849360159,0.27139143900487184,0.25282842157081753,0.2349321557973917,0.22463834107704767,0.2395747430274907,0.27056499284742863,0.2921324932022512,0.29084743761397525,0.2843499306897682,0.2784905293099881,0.27711926337452064,0.2719356349020893,0.27054713553230536,0.2643368310804729,0.24056278150223984,0.21049424647406406,0.20229652220196806,0.2263298213896036,0.2614181400020522,0.2979123582333888,0.3334342065749608,0.36458951933187933,0.40047354555428505,0.4369727358985417,0.4734725225374226,0.5098928692082115,0.5427028447689967,0.5760721901307065,0.6125309976701928,0.6490297328168532,0.6847784029816973,0.7159384249126844,0.7515904521424034,0.7880892594418475,0.8245863195824098,0.8585214138872809,No
3,0.20439171153408695,0.2357420928533791,0.2669760759976707,0.30857914602755443,0.3511050642638989,0.37705180811838596,0.40184727080598015,0.37815057453200107,0.33984801315675783,0.3558360463146846,0.4143322319900997,0.4744652997610818,0.53254358796672,0.5851888738251436,0.6447015177038566,0.7048428490510892,0.7648418529534182,0.8193562175721879,0.8750914832828427,0.9311158333495244,0.9605485645407784,0.9182999861665312,0.8658957466207589,0.8065823159090049,0.7489346819323102,0.6962876562681979,0.6432709913479342,0.5917036711109485,0.5440602898851672,0.5027141053564812,0.4763285305572429,0.460394063782601,0.43235584007587824,0.4190718732192877,0.404832857981114,0.4045704516574278,0.3845317645580044,0.3499912202678761,0.3053937395648263,0.26637012397783266,0.23100286996409206,0.21629216304395205,0.2346215299426169,0.2769105071104672,0.3175069161057842,0.3600438055580375,0.4002049172980315,0.4438866660086405,0.4804903964547693,0.5177316170740491,0.5270042448074295,0.5187477846463608,0.5080842769395051,0.5052061644240113,0.5191335879692285,0.5323179888890239,0.5404331128350379,0.5476381038860219,0.550061641690522,0.5351703585855698,0.5217662468488096,0.5317412008756603,0.5543945835261412,0.5662802924866419,0.5602909512795837,0.5428452765869991,0.4976778752407938,0.4442603615136251,0.3891058021447329,0.3342391411096335,0.2751148855667376,0.2226635090549991,0.16412432803786947,0.10427477714660527,0.050985561886125234,0.008360538430567832,0.02391881427038633,0.07925973432821021,0.13273614887138474,0.18966336171930265,0.24978174801196465,0.30992339089096066,0.3700600371005345,0.4284309355877316,0.4809118193435684,0.5402937483121215,0.6004347176967477,0.6605763605757435,0.7206120126763214,0.7756473869217946,0.8308892399215722,0.8909460445025348,0.9510499383254204,1.0000000000000002,0.971775195788321,0.9172288094380908,0.862528492015177,0.8098097421539907,0.7551471051131249,0.7021435063917238,0.6495227939268793,0.5986044088623075,0.5551767658024909,0.5138142168161082,0.4814743608789625,0.4587934277761867,0.4362247910923607,0.4031135224447093,0.36700565100689575,0.3241311253260186,0.2818582910934804,0.2393539019882296,0.19936705455964376,0.1679546740056297,0.15996310553099602,0.18654974161090832,0.226047521434374,0.2674529036493933,0.3129715651344054,0.3570213933133468,0.3998625221188943,0.4477127529250893,0.48365639126673604,0.4985567397508004,0.4867215887020149,0.4741383893866416,0.4736736244585815,0.483696645284164,0.5026707977632936,0.511952379884568,0.5191216211131973,0.51471498053493,0.5190227687186504,0.5074246161048566,0.4949784470526082,0.510620275742929,0.5342519776958436,0.5564658509030007,0.5608193828125776,0.5556403484828465,0.518538336419726,0.4642750873439829,0.4107492553190797,0.35835515315229305,0.3001598764502356,0.2405711435880187,0.18774241445186826,0.1299279231305548,0.06985612054514423,0.01562247208870571,0.002045199269842257,0.044802409687740415,0.1035333236551299,0.16083259380164686,0.2140180182000455,0.2737745376930005,0.33391606757149783,0.3940555336339047,0.4529836716840243,0.5053671815343386,0.5642874806810071,0.6244226833134605,0.6821378735466406,0.7227838327023455,0.7744235089664739,0.8340829161945591,0.8875449925381578,0.942750738249013,0.9526374940946372,0.9031135164297652,0.8473144839879632,0.7927178955569123,0.7384183301147877,0.6862122742752987,0.6322098164531889,0.5806260456362926,0.5338232778410719,0.4909444483507857,0.4601798840754678,0.4309674802391028,0.4035630610257217,0.3704152683556825,0.3343551224800592,0.29772737754259193,0.25571916885847723,0.21489550048227746,0.1733107416087094,0.13606618419656713,0.11655209549664458,0.1332947047316666,0.1685491901062035,0.21047418128976325,0.2626677694162569,0.3072218934560338,0.3516698704421344,0.3945505123820605,0.4343100912950266,0.4662405604607101,0.4820176308675013,0.4777580670137931,0.4736442221149775,0.4777910898938238,0.4896299535242006,0.5027987124650566,0.5038543662172899,0.5094162951323853,0.5184740187905994,0.5079796866919666,0.5021560678249184,0.5182210844946051,0.5442469368865441,0.567617463891583,0.5718499424311176,0.5722382261139201,0.5337243367450792,0.479215161650083,0.4257636577037538,0.3703573304569792,0.3157831335211474,0.2558211890323925,0.1996293741716688,0.14550997281686628,0.08558035661566077,0.02964988977731453,0.0,0.02991482389739764,0.0877971446312078,0.1476937597336081,0.20154486370377733,0.25804953690888666,0.3181608765514192,0.37830251943041615,0.4384441623094122,0.4985828371395582,0.5572945312546129,0.609715810377373,0.6688151659398038,0.7289481410574223,0.7870801656654187,0.8396870376293328,0.8978945569485914,0.921615910810384,0.8802319554622786,0.8262335882739399,0.7731471231629243,0.7206596347178464,0.6657147654497766,0.6139496787358669,0.5624939987292885,0.5170033331455153,0.4921070847848381,0.4714187384093957,0.44267873573056,0.4114865899162268,0.3806404821572005,No
4,0.4569837772862706,0.4761196740378453,0.5254154495839556,0.5707644811994674,0.5696487396832737,0.5038785656399418,0.43428307432603663,0.3646967573733035,0.29855483885767864,0.2395402140917262,0.18255436839935515,0.17985648487953898,0.23180341328816126,0.29020922058190024,0.35887358051616025,0.424294846980124,0.4592979727411533,0.491622885209051,0.5504296705928908,0.6196476063556737,0.6804706225852657,0.7440477278919526,0.7969553058873244,0.8549309399193783,0.9243558487118886,0.9866494195173416,0.974629112899042,0.9380805667404744,0.9092844155512324,0.888920183343175,0.8707187627953871,0.845324931905707,0.8191123728962579,0.7851730535907624,0.7502688698067965,0.7100737652033677,0.6640840401947399,0.6197732781703214,0.5668850759303412,0.5297361346447076,0.5165267798881201,0.5388816242321957,0.5765502015586952,0.6347788510383299,0.6819743754518943,0.7280710554917236,0.776676304491815,0.8203892150804584,0.8585814356968067,0.8753974754684544,0.8704948259725329,0.8505766370032672,0.8541279128605477,0.8524276036940588,0.8616762402165818,0.8656079641039559,0.8843181971295646,0.8907047023225525,0.8779556459984343,0.8523611703823524,0.8685444983834918,0.8937343526492163,0.9161977359666732,0.9232217910889062,0.9127572933598054,0.8735274264207371,0.8184595688604932,0.7563027843238221,0.6955584042278198,0.6314376791396357,0.5618984744283724,0.4967378143133554,0.43677618538710017,0.36758488084161023,0.29844901639721355,0.23900820438102025,0.17327147104618112,0.10446080293850413,0.04580917440620325,0.0,0.02610751084296004,0.09210060251394836,0.16168967976485238,0.2303462768131779,0.2889564626953558,0.35599005656695226,0.4255833043454185,0.4951814641910377,0.5647796240366579,0.634377783882278,0.7039759437278974,0.7735732954352605,0.8419753613268202,0.8871931864929423,0.8686892492267293,0.8412286076717432,0.8227379888882753,0.8082501600872409,0.7907724793785582,0.7666991039452093,0.7339505666705479,0.6930811877058827,0.6550738152709372,0.6115718517279509,0.5643176949563641,0.5169329246700083,0.4705965538531411,0.42938957090202345,0.4051128447496539,0.419483806573058,0.4658197250094758,0.5131745068811071,0.5634840851479486,0.6207358603847415,0.6722610200294808,0.7264503630079853,0.7726607442549582,0.8023977969118081,0.8184828249145184,0.8251893151915155,0.8277541910118553,0.8329778978257996,0.8330484221472405,0.8375349347507193,0.8538553722604867,0.8667871548516941,0.8567412231558267,0.8409920656288291,0.8401669170667265,0.8703687355678285,0.8856773483073641,0.902401331860916,0.9142021913170866,0.8796209459941382,0.8227736283084419,0.7641450816392394,0.6975303277376272,0.6390256126120533,0.5711943257095355,0.5120669176534127,0.4458711683051251,0.3765848863125687,0.31621434367173595,0.25155486883747424,0.18211926273730936,0.1206383724660678,0.07682112458260892,0.08938987296724621,0.14460656945783554,0.21388890148173667,0.28348706132735746,0.3530852211729769,0.4226833810185975,0.4922815408642167,0.5618797007098357,0.6314778605554565,0.7009323455141097,0.7628548500764643,0.8258490630576212,0.8937391872890514,0.9103597791661668,0.8722500293561595,0.8523708225180555,0.8383867687180135,0.8245974226749841,0.8124616620137886,0.7838103797882819,0.7518121588857802,0.7121747483650411,0.665838347670813,0.6218122658686918,0.5814577123245352,0.5382854561932731,0.5095462736303471,0.5084518244504728,0.5412967184657833,0.5855702682928388,0.6327322758377925,0.6849880589159261,0.7389159869928101,0.7862072577198931,0.8393409149866229,0.8806871963481675,0.9031740474305718,0.9062213007544796,0.9121032095807192,0.9088649419296448,0.9219191231597904,0.9374262277753612,0.9416886377273856,0.9590532829810744,0.968151166260918,0.9498399414567992,0.9384820169092049,0.9621061687197834,0.9892247152022238,1.0,0.994793628164378,0.9749752188608564,0.9221884659751828,0.8645200079835558,0.8012265733500312,0.7412681347118446,0.672076830166354,0.6029409657219587,0.5435001537057644,0.4777631793793473,0.4081837643841701,0.33858560453854913,0.26899235676008404,0.20196196858681856,0.1469543642903044,0.12977071721769295,0.17430709011530388,0.2428866361032762,0.3109140536733832,0.3692095302770404,0.4371847594703824,0.5067811574987964,0.5763793173444185,0.6459774771900406,0.7155756370356565,0.7851479065090721,0.8503461310894092,0.910227477907026,0.9781929516636216,0.9945989214868144,0.946825844195328,0.9119622593405738,0.8940138311360344,0.8800369274338875,0.861632919329121,0.8316738918250524,0.8084756602313149,0.7702338594088016,0.7302415875416757,0.6921498296003779,0.645924343376286,0.5955871518002875,0.5498065582512175,0.5139357311480137,0.5097935592496037,0.5375188461768214,0.5774206020847865,0.6328560554751346,0.6871988775352511,0.7353839380195271,0.7817912037233565,0.8278510017833507,0.8608691311693386,0.8752066712385869,0.8764433226495383,0.8698456672967034,0.8643773480560593,0.8706789818996157,No
5,0.2205770407094088,0.19087290691229372,0.15649428141282407,0.12336563673163925,0.08779325951277306,0.05529725275554487,0.028716254636491526,0.030816059726513245,0.061187847214984374,0.09416235379186312,0.12611964768690387,0.15950934669058506,0.19238176477628666,0.2217153700996095,0.2475123981576535,0.2690231152824678,0.2915300564177634,0.31898531086606075,0.35077985649677146,0.3866380911454879,0.4241801126938121,0.4626777899193804,0.5018123248458848,0.5416931820454434,0.5797188891187073,0.6217351663720667,0.6616384245610147,0.6996884133448382,0.741731867482412,0.7830518884174806,0.820221607649573,0.8617096958347934,0.9030113519225836,0.9401809591272868,0.9800564451391616,1.0,0.973705641547042,0.9359403148558744,0.8939342542468871,0.8531254455869282,0.8157419212566177,0.7740080643564351,0.7349337370752111,0.6961090160256995,0.6539952135397684,0.6140441683858542,0.5760265729929372,0.5339985018211395,0.4917888495422285,0.44957917930778657,0.40743040600003777,0.3684564245225279,0.3313061341319121,0.32554812514108344,0.3566357812136094,0.3745559207418661,0.3800798154191121,0.3711979995918635,0.3511359731598487,0.33592247986836243,0.3378774685670736,0.3472339587675293,0.3469623280004188,0.3395497644088694,0.33104907072497997,0.3199204822537649,0.30897318071387736,0.3034045463256787,0.3096315036542239,0.3145374434574617,0.3067686109984269,0.2840399350853382,0.2562889380434723,0.2257747992581847,0.194129591471892,0.16244248325565858,0.1295998097778135,0.09584857740212416,0.06164079700034419,0.02752040016550528,0.0,0.007900345398210384,0.03870078383185183,0.07041448371702398,0.10417450196771773,0.1374510240602026,0.1710010293569717,0.1985825447704862,0.2228412626554932,0.24421047660316164,0.2672120763699928,0.2957974435446737,0.32803510708956285,0.36319377311013534,0.400830738995434,0.4382654459884592,0.4787189400690468,0.5181662135055114,0.5566259882210267,0.5986847996574101,0.6381083223242237,0.6765991977125071,0.718660494018202,0.7580504311429352,0.7965724072039879,0.8386742618005105,0.8802018067065474,0.9174026813719722,0.9585412574404312,0.9940648910839732,0.9934901087392878,0.95890273233768,0.91852127361623,0.8810433706269478,0.8393618347071035,0.8013147081026135,0.7614080370751449,0.7192889346916196,0.6804248512301132,0.6413933171110389,0.5992435044837996,0.557033834249357,0.5148241640149147,0.4726901881995202,0.4338883060835503,0.3947942534221538,0.3537691093732904,0.3227494662313908,0.3174069894182967,0.34714204392075154,0.3631889704601576,0.3672726184350696,0.3563333431931204,0.3367082501970591,0.3252853294202174,0.3273644154086261,0.3376754136648488,0.3412630522117857,0.33482797779765905,0.3241722712042097,0.3195120565158056,0.31100366907713983,0.3101963065477531,0.3193023510069779,0.32050191639296943,0.30678193172613266,0.2820592931299193,0.2505601868623748,0.2197074876017373,0.18795399383713374,0.15470018348617676,0.12147775539456672,0.08859215852734692,0.05651680000235638,0.026131210203318656,0.013855898840357872,0.0413892094758066,0.0731027534220613,0.10601210782056393,0.13801460213137173,0.16964584685894124,0.1998728658155652,0.22885896993115476,0.2526056710708704,0.27373635612484204,0.2952973851329723,0.32365645706136537,0.36168605795122205,0.3988282251657132,0.4390666260304423,0.476272656687498,0.5174103844992877,0.5547202343288682,0.5956243247386808,0.6354584033765664,0.6735664098691576,0.7155951267772103,0.7554036458921376,0.7935396193606379,0.8355968108468137,0.8777708140463094,0.9172391261688152,0.9556102793975374,0.9923843710403272,0.9983936443546968,0.9674761305454378,0.927026286392963,0.8895289430661515,0.8489238759604558,0.8079616346377174,0.7706717758989157,0.7289503638012964,0.6867411768979632,0.6445315066635215,0.6023218364290801,0.5601121661946369,0.5179024959601952,0.4757097497159917,0.4355739262849237,0.3977133922774041,0.35571609127668125,0.3136718467566613,0.2884069024009772,0.3162357188867926,0.3508046598994192,0.37265291894261066,0.3789208094144045,0.37279960908357107,0.3580419236251593,0.3449354993767393,0.34437620109878564,0.3577497433512109,0.3592384416451833,0.3582900791219261,0.35414934584880564,0.34861103018402684,0.34056469674932965,0.3298934114451657,0.32656547830424043,0.3329256766575355,0.3408403750333171,0.3336626601342099,0.31087337371856205,0.28334245006509184,0.2533508968262261,0.2218542112971833,0.19011653919598515,0.1571735019437125,0.12450878316909708,0.09162249727289327,0.0564554888427653,0.0312610121671445,0.04336191524264321,0.07417529286641411,0.10632989266664927,0.13712190072954245,0.16270009324437407,0.19067008887253634,0.21318818999013667,0.20668646848385971,0.17702040699977384,0.15734193039275046,0.18253281167882784,0.2143006489136302,0.2396389197983981,0.2620230193103219,0.2850930302655161,0.30867729101797736,0.33949106626537384,0.3726670708110589,0.4105973347097107,0.44881590244332936,0.4876853362565508,0.5265717432126671,0.5652402832116838,No
6,0.32126130177043044,0.3425857741636782,0.37651802989532746,0.4095079688604011,0.399052267465368,0.3535523072882616,0.3098080727991104,0.2620713407767548,0.21890523336155765,0.17084979832968328,0.1264610219556248,0.08032605804526549,0.03455670245594078,0.0,0.011507332220554887,0.05566890957184933,0.1047062810372228,0.1537899512102714,0.20249029910034225,0.2460633190310801,0.2931527620379688,0.33008112659654604,0.3232472669524711,0.3325610066011282,0.3620730273196724,0.39424752519503103,0.4160782234390417,0.4000487056315472,0.36302217176106,0.3379227857901181,0.3544581514133627,0.3962769523057339,0.4389506287783729,0.4496156830791693,0.4506687594415895,0.4614281755665146,0.4676282437730901,0.5036219131989188,0.5523447259745633,0.5969078195377562,0.6428919577198313,0.6919383992508001,0.7410152141493873,0.7877719452098431,0.8253146873416564,0.872671400095121,0.9217510997527351,0.9702146331895848,1.0,0.9694680013282022,0.9205886539299001,0.8715047395153834,0.8224208251008667,0.7733841899822629,0.7277134701045052,0.6830888121645264,0.6391815932182063,0.5959573880786517,0.5553925907192696,0.5213592640987383,0.4921508344416945,0.4728410898915807,0.4654937474904046,0.4513040704629789,0.4284769091028877,0.40048978139258573,0.3706043648653017,0.33886128173094354,0.3087324634959785,0.2857734690308398,0.2917682334713689,0.3210198024340025,0.3569632941715777,0.3969899976157787,0.4378995302613993,0.478821545400492,0.5215473534016093,0.5639646058426975,0.6018199976333429,0.6369218174939342,0.6680809312287213,0.6669707758640391,0.6394265949685158,0.6125239634463995,0.5873466932005531,0.5632378856369091,0.5419742526155649,0.5311996133323629,0.5366667889468233,0.5471187517475127,0.5525446855516085,0.5471552201635921,0.5452830306796668,0.5418777969792337,0.5488331250272847,0.5543236772502689,0.5541575310046128,0.5505702209315766,0.5418301111399604,0.525326437115756,0.5195339715716076,0.531168710133548,0.5453512963794571,0.5499946963665212,0.516792732315589,0.4683063670043177,0.4194183287434494,0.3751675981193057,0.32884789263277825,0.2821060787615717,0.23821111670648365,0.18945045905823865,0.14359047745762588,0.09891265105184223,0.050562102496147454,0.015872243821558274,0.029074895394050282,0.06965978393695682,0.11719664987851765,0.16627538066444947,0.21535908935422965,0.2640849565769059,0.3077236842798754,0.3548187115142587,0.403891711979115,0.4529756263936315,0.5020595408081481,0.5511434552226653,0.6002273369698223,0.6491109421328058,0.6932955644328684,0.7397007785230849,0.7887597865373295,0.8378437009518469,0.8869276153663632,0.9360086281295747,0.9822689249903316,0.9837158965906716,0.9397663373974979,0.8907230669836388,0.8424330073762571,0.7992256105583302,0.751270994105548,0.7021952266161606,0.6546776281870841,0.6123570646403691,0.5720871436616346,0.5379509707291337,0.5127265663128521,0.4963326017831429,0.4851475735546205,0.46769866742801897,0.4436180616037406,0.41416375723489,0.383456652736726,0.34932031210847536,0.3156704562067965,0.2829415263500805,0.250470972992322,0.2291658385250321,0.2411498835031054,0.2706241143250674,0.30699474470513843,0.34183498097721543,0.3833559866373173,0.41934859645224587,0.4504981172775358,0.4767959128811965,0.4951481434836698,0.5083869972013308,0.5185162334381743,0.5299456269408567,0.5390290770774695,0.5475132718163139,0.54921641881439,0.5480590462292256,0.5408597821271837,0.5405704487650287,0.5381866308151382,0.5381872055614103,0.5419600582763981,0.5441386128285193,0.5437925652992543,0.5294027100785623,0.5268278812602301,0.5380784488700265,0.5493021477789914,0.5312437631625402,0.4896670285022313,0.4421654363759375,0.3980000357095541,0.35162293399966194,0.3060258263508016,0.2611241054536351,0.21332316223398,0.17012620705091042,0.12181110440589428,0.07559988405444484,0.03409652183259315,0.028735905717475307,0.06897032771973521,0.117864691236386,0.1669369840645446,0.2140083854434206,0.25766571458905685,0.3063972469120137,0.3554810183359083,0.4045649327504248,0.4536488037607185,0.5024822167422263,0.5464898244481373,0.5931156103144954,0.6421812640650904,0.6912651784796067,0.7403490928941232,0.7894330073086393,0.838516050712014,0.8869246779375671,0.9301180055677284,0.9667904507435094,0.9410721527294272,0.8923255142523501,0.8453423083141558,0.8016256862319544,0.7546135352646124,0.7111874486952487,0.6658619153669623,0.6220408529158619,0.5809772385910701,0.5451339605673995,0.5150635744952545,0.4945183890558302,0.4832841640449563,0.4655599964208632,0.44407839041938657,0.4190607888439848,0.3895254571020099,0.35685964575479834,0.3203845544016541,0.2902542659534153,0.2631815931481407,0.2530631864211013,0.2770240689010197,0.31226400630540674,0.3486791816927217,0.3848106828161111,0.4229693131487216,0.4573121574627732,0.4879309813178165,0.5124829908370747,0.5275453765286771,0.5263792135279213,0.5195104285470884,0.5146497597502175,0.5154653378516434,No
7,0.4253285384623013,0.4258164796061439,0.43552160951062413,0.44062032960628095,0.4508382676141416,0.4516594095355582,0.4516254096120602,0.4465124290281288,0.427188889096088,0.40023646046047023,0.3688013178998792,0.3348224392079482,0.29403701177374986,0.2528651619625597,0.21169331215136933,0.17049997379443638,0.12827450716265876,0.08450225864912109,0.04033535643395303,0.0,0.007462790687364773,0.04287181248803873,0.07946792400485725,0.11605157667944856,0.15468745512590476,0.19016182447235908,0.2271088464302249,0.26596613841746297,0.291429828493992,0.3132780813541625,0.3349982634067379,0.3534299467203321,0.3742676030029606,0.3944268862509066,0.4183658392067669,0.45612699652219707,0.4986659593735965,0.5450161109657858,0.5936652113918006,0.6405937185924007,0.6903232841568823,0.7392530069482581,0.7869723666114994,0.8347745227944543,0.8835949357217738,0.9382037719086762,0.9816423980241432,1.0,0.9741195982046204,0.9249628502641104,0.8701264916910683,0.8185109657479606,0.773081157427804,0.7186370400738076,0.6637546360581275,0.6088722320424469,0.5540485783200144,0.5053222022119708,0.4572973582590545,0.4025081973757741,0.3476261510153713,0.2936606485393889,0.24972204402328746,0.2335144245053105,0.2741915418910628,0.3241846852136057,0.3698125988448529,0.4169465712461585,0.454543962183894,0.4769099032243167,0.4774304611286069,0.4676553385318782,0.4569259319024308,0.4514363644119768,0.4386688901127012,0.41523541704295003,0.4289334221476291,0.4383431920515495,0.4384941198582868,0.43851313548896176,0.4431140601839636,0.4514223581558672,0.447739890768045,0.43882544562108095,0.43766687860865,0.42756731901654144,0.4331524773482842,0.4387142281442165,0.45022949288215575,0.4646375057436107,0.4745603265687657,0.4779805390972674,0.47764449819621996,0.4669596305658827,0.4454091223398766,0.4215356866986793,0.38625301886490737,0.35264806373539503,0.3121499981494207,0.2709781483382301,0.2298060707465841,0.1879408090499166,0.140862644899582,0.09428079907401532,0.04874131493207856,0.00948563875030728,0.004546073782933925,0.03849810009246979,0.07470374118090484,0.10882108191204233,0.14968602360906602,0.18656796570320533,0.2281409299433577,0.2603349162694624,0.2877998863495854,0.3152391222378417,0.3410042579792063,0.3602227353672092,0.3813138619956282,0.39670051034288667,0.4153919012158518,0.4455948695667469,0.4859436463518008,0.5314775059639341,0.5759149027116397,0.6284616588291021,0.6738515988705784,0.7255108998346627,0.7801722763432406,0.8267346785280818,0.8769365843019243,0.9252314750812044,0.9642180295990436,0.975015591722201,0.9533176114831514,0.9118922729466336,0.863434266968536,0.8086276611455383,0.7537913532628582,0.7045262443997,0.6570331058916974,0.6022636264788659,0.5473812224631853,0.4924988184475061,0.4376630471325821,0.3884349962640785,0.3409056051121042,0.286134973597878,0.2325354964134885,0.21820134664930732,0.26264220078580397,0.3074947584878376,0.3588273571436247,0.4034976209200036,0.4512281268701432,0.4683825821775107,0.4776305616887746,0.4750720585936219,0.4648813838426076,0.4550370276615827,0.4466266934948981,0.4298233298716991,0.4447021860682741,0.459387319551495,0.4647834790593714,0.4648349642785248,0.4681267220790395,0.4726588455517082,0.46252362462535096,0.4599650134977327,0.4583752438135567,0.4478046263919868,0.4388220632261892,0.4384941198581962,0.4390629794174124,0.4497981356816867,0.4625755976422821,0.4705813311743685,0.4778457228143678,0.4756412502509804,0.4652517315339893,0.4545053877566012,0.4319897828906245,0.4046106155967864,0.37267432346696827,0.3311931477142909,0.28721343871446736,0.242852548318663,0.2016281936551452,0.1609631048509137,0.1221295114679386,0.07894005758024081,0.043518373909825714,0.044212404155604235,0.0797701976041385,0.1231270787860672,0.16437616071692096,0.19835423934316365,0.2341598906712869,0.2636528614363032,0.2892057253641647,0.3121127809333881,0.34146297324873,0.3660987853028268,0.3807357462612986,0.3987586911736094,0.4154058128521272,0.4496543760823895,0.4908377258042993,0.5384817208592225,0.5833917980864989,0.6332022767425194,0.6779374566318697,0.7261267775176381,0.7735050531808922,0.8187522981151343,0.8685041817728091,0.9104173828782818,0.9357160486969418,0.9164365574715224,0.8734879191180771,0.8196244901337097,0.7647503896474919,0.7131458074596257,0.6677067155832028,0.6132607591743109,0.5583783551586303,0.5034959511429511,0.4486135471272714,0.3937311431115904,0.33884873909591073,0.2839663350802315,0.2291454618025353,0.1891446494633016,0.21537095004271056,0.2674572255693235,0.31678145596974483,0.3638552519778493,0.40926116532351386,0.4515896784230655,0.475742128150749,0.4887874485702142,0.4905639404221436,0.4766564720437976,0.468806679465529,0.476657101194387,0.4608751124849109,0.4569034762037098,0.4657727919268702,0.4762345054905786,0.4779832489947698,0.47539761953700804,0.467485257385535,0.4737080581745117,0.4652346939039842,No
8,0.9613364770900956,0.9234514976001796,0.8830933279638327,0.8344508540787476,0.7852827450975663,0.7361151648494944,0.6880562280281586,0.6480216517802537,0.6001863027047927,0.5510191787606367,0.5018510697794558,0.4526831708429349,0.40418221157764256,0.3638234654564907,0.3168718387682099,0.28457764689662945,0.2951396276440914,0.29664023679565665,0.2909237650120477,0.2927704938837041,0.2784798564511075,0.2621596738865497,0.2558491375826564,0.2762444831233146,0.2880691462917253,0.2942906714440132,0.28587847636704344,0.2899966646180234,0.29671767072731225,0.29689097882321835,0.3026849021037672,0.3190613463109879,0.32039441246888445,0.3285699945688836,0.3315935207214431,0.3316012183544041,0.33094504151504345,0.31557803724251693,0.2886239442795717,0.26201340929157824,0.2273686528811192,0.19935167834463965,0.16059864408453614,0.12400022161313462,0.09361878961806047,0.08166122884535576,0.10173881088407156,0.1263209684972979,0.15282269034156706,0.18117646722449127,0.20583485493798048,0.22750427263226206,0.24649484151513226,0.2603586243031613,0.2732674155658392,0.28313276633782114,0.28364874622029496,0.2780232765935131,0.2971482332212252,0.33377798354899313,0.3780671571110821,0.4188362109617367,0.4675287695306944,0.5166968422972795,0.5658649512784604,0.6150330602596412,0.6640719552515169,0.7062946776303183,0.7509956534326592,0.8001285176153887,0.8487554575721727,0.8891180870907411,0.9360598342390124,0.9833278875303106,1.0,0.9741169991928658,0.9267968784809284,0.8842021954201429,0.8398638138287824,0.7907307350123305,0.7415626260311496,0.6923945170499688,0.6432269512877351,0.5952041493092382,0.5551609266448616,0.5072981326005492,0.4581314866890676,0.4100906172891512,0.37005504077911455,0.32409659781381284,0.2889839817116382,0.2911282866177234,0.2883666751396305,0.28134938417127753,0.2730299259533706,0.2585057108558049,0.2433285832422971,0.2316394075647141,0.2463496092660691,0.2611851467430628,0.2588481242607126,0.250850984188403,0.2460794675225424,0.2432040226430807,0.2503622341919105,0.2506500389685249,0.2566874886102481,0.26211670505634244,0.26687213391530884,0.2717693362058136,0.2621395135276434,0.2519437344254065,0.2385538239038898,0.2131511521667553,0.1834101290194452,0.1461427688896224,0.11177176508087537,0.07783803926882404,0.042582258228605514,0.014918903549442362,0.0,0.0188874056475985,0.04801691358971305,0.0750802393375527,0.09869528254232708,0.12406947187855864,0.14431964472696168,0.16263576576829242,0.18238290438969207,0.1924206666231425,0.20124422854120366,0.21099404605987715,0.2255069443180271,0.2501739229824449,0.2830012859765865,0.3224454073242207,0.3666423681218984,0.4130152052921541,0.4538235650698801,0.5025297145699463,0.5494987880307662,0.5899267054836992,0.638459597966269,0.6870708229217684,0.7273947623756212,0.7743914855290348,0.8235531649200789,0.8710431341507272,0.9077994858114432,0.9103350865123364,0.8746426919489645,0.8279093594784355,0.7787451571996966,0.7295770482185153,0.6806067388325499,0.6386962438406187,0.593630148617811,0.5444815908627669,0.4953134818815856,0.4461459306051912,0.3981592634695335,0.35810739438868344,0.3102175537360821,0.2619350347375076,0.22933324185921575,0.24676490285037045,0.2671974178316681,0.2687462187846348,0.25315643006970423,0.2402809795313077,0.2342774751762571,0.21492683599703089,0.19975252615674946,0.21625980409197146,0.2299345841480891,0.23862386544158445,0.24095965618222934,0.2508451810020689,0.2605776997669227,0.2621398485217217,0.2640880691948977,0.27300202923123584,0.2749812262566327,0.2840933964509029,0.28522011399968816,0.2789383374588299,0.26027571593766363,0.2357650257016104,0.2060102463911961,0.17517908909509594,0.143838172967927,0.107871586094902,0.0749075417629319,0.04179679942672854,0.011994198349736251,0.02003008266349049,0.044318798353704336,0.07310482906352568,0.0991400520916621,0.1248374445135556,0.15388209715320844,0.17722927466435756,0.1992885760721368,0.21426626889334946,0.22826946512983515,0.2405503337198485,0.25116232482080725,0.2646962933003976,0.2850944320470257,0.3209616859569695,0.36979273749918384,0.4130782330247813,0.4566879863032503,0.5055548380808936,0.5471156127134318,0.5925803556455826,0.6417282108421271,0.6906554734127419,0.7322399129633879,0.7776763682240646,0.8268236681978753,0.8757561087445906,0.917363054346256,0.9612317783649028,0.987569119781563,0.9710806425587704,0.9259635505458128,0.8770142787761355,0.8351932184308648,0.7900309071016869,0.7408816272917025,0.6917135183105221,0.6425454093293408,0.5933942227963929,0.5477597538353969,0.5063409687115046,0.4574499519735933,0.408281951636202,0.35966922611043817,0.3190687931744536,0.27424137882749466,0.2727176119437411,0.2947949411554673,0.29486895947830805,0.28127661893469397,0.2734644840327256,0.26463672857506504,0.254509268909191,0.2695596773307576,0.29873464032898495,0.3205273077933959,0.3310825226323024,0.3316013125122248,0.33160138494141633,0.33160138494141495,No
9,0.00916139676211003,0.016541978871529306,0.055768174134463784,0.0979729839785306,0.10891906697449638,0.07383463129655432,0.04152517441898995,0.011537507368731605,0.0,0.01507157949707949,0.05841210249861861,0.09518462800393256,0.13597879170788296,0.18354000889272148,0.19153031599728895,0.15326861074413545,0.09974545682863399,0.05595770395531918,0.03983369162645412,0.05806531891564415,0.03503919731608551,0.011392401340777793,0.016369858324165154,0.046632341424484025,0.0851512584138745,0.12750940880767206,0.16559514740149606,0.20298122892864207,0.2465408110111227,0.2855661428315188,0.27907111136897056,0.3037067678058549,0.3192883904959332,0.3575525445535841,0.3905382637142463,0.4341725851578966,0.4660545866237609,0.4869809683863933,0.5009766102759651,0.5004018508998409,0.4868781081732436,0.4743987261710649,0.4688006245448735,0.456306699329224,0.45176540723158004,0.4402433236083896,0.457991201864091,0.4715476293276848,0.4891942210957465,0.5053392482968855,0.5180957066046261,0.5116625411728317,0.5185662580201145,0.5347636568768617,0.5352065567958766,0.5368207415998585,0.5494635021798729,0.5389125885571979,0.5443976986283485,0.5490571327783669,0.5361324266142651,0.5352061962963721,0.5352042743309049,0.5331000276612752,0.5112971437004372,0.4939506349824643,0.4652896176430668,0.4351739798557479,0.4263448850725999,0.4532321064564644,0.4835573005030152,0.5021947166393668,0.5156590013402389,0.5306838674124181,0.5301631337688928,0.5057090975030256,0.4736558791015257,0.4328289179290361,0.387269609980252,0.34533490385488985,0.2894865020568882,0.2301159626681333,0.19545817334978333,0.20774632481245006,0.25858750369892336,0.3140085546687126,0.364388737878762,0.42514027426530143,0.4861552237497069,0.5471696094296292,0.6068903529407925,0.6547145990707683,0.7137695415653779,0.7747758393891999,0.8326467928113503,0.8810636148774416,0.9413803948129766,1.0,0.998936639447864,0.9515088032888944,0.8948013345929726,0.833805101915158,0.7770449585488479,0.7277116140433444,0.6678438956732164,0.6193277651153406,0.5628350035272565,0.5148381661248607,0.4612211546730967,0.42124800144738384,0.39607471762287627,0.36770233123765816,0.3529566950655618,0.33836376662504764,0.3228942132724839,0.3028597855872297,0.2845113038036855,0.26036332378618576,0.2339623785573717,0.19399559842528769,0.15347034021761452,0.11959496404089133,0.08907883194156785,0.061489008180906975,0.04298933486433665,0.029044329859491125,0.047821966779559855,0.08436771803223664,0.11779088853823215,0.1582491721474777,0.19895823590849027,0.23960333676794446,0.2809214911933906,0.324538491939848,0.3616869220984032,0.4013797769711651,0.4305135856133924,0.4460282237379509,0.4529118559129466,0.447825299147302,0.43654791002832827,0.42510771303515416,0.4143498617384598,0.4038755102982408,0.4036302471479787,0.40347984505817536,0.39481870943105024,0.400901683947454,0.400581626694748,0.3951267850824465,0.3953389608895219,0.4003969782797277,0.4010863323624898,0.3946797602524068,0.4034215735755997,0.3972349333926904,0.3969464070054381,0.39448649854821216,0.4122697726646267,0.4107658661940445,0.4176407015552677,0.4005012154829175,0.4012964874720471,0.4130430210207048,0.399327168995586,0.3725989167689821,0.3448746907488669,0.34951615825937443,0.3748806216405836,0.4060579397076269,0.42264004236095065,0.4414681947500165,0.4526959788102394,0.4470912065862018,0.4227196354861365,0.3806207737516152,0.34330450557239844,0.3074143403665617,0.2514654149247844,0.20249971903888708,0.16068312908081506,0.17627523797772324,0.22172441648348107,0.27944288175347554,0.34045462027703177,0.4014688550501764,0.4609016176136773,0.5087181781993215,0.5680683344655977,0.6290818775826845,0.6888426184476901,0.7366910890945717,0.7956818725962562,0.8566952710943512,0.9176825839275292,0.9678713854154101,0.9412053665012374,0.8808174604254,0.8201677753782777,0.7708384270429063,0.7142070767356365,0.6536412106217173,0.6047477077950587,0.5486298329959904,0.5006269174256719,0.4514421462805105,0.409580605528912,0.36736745855094544,0.35266543166833,0.3392572827804652,0.3368680921489915,0.3238966144847581,0.3109312285921697,0.28651023077285753,0.2592711225355893,0.2287761642562192,0.1979811200412307,0.15658533177788134,0.11918503507396405,0.08353974683045351,0.059395607443716074,0.03193114661876173,0.025536713190223104,0.04266538530223008,0.08337899909076407,0.12146358589562525,0.16257883738861212,0.20803344551920852,0.2488659449131121,0.2915257730273235,0.3356277588923122,0.3708619262288977,0.4014055388693807,0.4317958671164819,0.4517740355248789,0.4541057854868509,0.4668438324613922,0.4574704790011,0.4502327572851015,0.4322807131647082,0.4209987379251245,0.4258375496641871,0.42020747139964776,0.4207803772576821,0.4332526985827512,0.4378557523552784,0.4510738576526272,0.4529697056495024,0.4529786005098022,0.4561991152828555,0.4684135584287517,0.457807039294686,0.4607956359342982,0.4693406715816031,0.4694180362328018,No
10,0.40441437044021455,0.3803760963254648,0.3491286030474912,0.31536058461937105,0.29678948291542273,0.29619111578522395,0.2978924538358527,0.3156638986064941,0.3298681511270332,0.32018100688301243,0.30099590920674396,0.2885340640349077,0.29413423433756897,0.29618275158307084,0.2961891949312414,0.29612951650762703,0.2915611605422941,0.2872979390950308,0.2850829912508379,0.27864254594831195,0.2766651084560912,0.2754399770113773,0.2866541759198744,0.2959896122819292,0.3017428872843104,0.3049321812300112,0.2993191467782208,0.293508776140863,0.2784188423769962,0.2557464188516847,0.22779540520556865,0.1972377395193816,0.16740142512877165,0.1374726532442727,0.10953257984259146,0.07901729224297549,0.049099149482719984,0.024295157956425232,0.006586178746129212,0.021449550077264682,0.04474186264597901,0.06994559022397318,0.09326291047310308,0.1144607549892731,0.13393256078792715,0.1530812100006249,0.1687909060667525,0.1816841349387224,0.1933368685515029,0.19974134243424316,0.21508712568402946,0.23941229632841396,0.2685600727500224,0.29981145253587993,0.3317636275088838,0.36861162552188254,0.4050432280121683,0.4377717401408476,0.4764631493012512,0.5142200249563147,0.546128102081858,0.5843149385482611,0.6232226286039793,0.6587905364826938,0.6923073734796055,0.7310924028189378,0.7700205794296255,0.8086036558246741,0.8410265589327601,0.8778770385367405,0.9167965126215296,0.9542533665323129,0.9786892048302659,0.9675390250616942,0.9364805847501134,0.8980176982477357,0.8590969752582784,0.8224340581440328,0.7898603868781859,0.7512397419078962,0.712311825224639,0.6739453955302313,0.6418755772768541,0.6044593646057429,0.5655334497296702,0.5266063593204053,0.4889078827005817,0.4569336849544401,0.41904148405549146,0.3877442289716193,0.3587554914316442,0.3275798771462888,0.29490911024375377,0.27184570961683185,0.2728964535042357,0.2786148092385743,0.29060503876714106,0.3033133489422513,0.296128987476141,0.275259031504953,0.2654856401826413,0.27381256322230296,0.2782689977279167,0.2783193406386295,0.27831934063862884,0.2783193406386286,0.2783193406386282,0.2783193406386277,0.2782247881870039,0.2733045470383815,0.2694153871949048,0.2693855459081689,0.27047981829622536,0.2790841933678281,0.29243220088327115,0.29616642678315386,0.2953068982894118,0.2868029643318513,0.2681846736495264,0.24265872258517665,0.2175238929769634,0.18963379383093693,0.16041753892558086,0.1296511514410763,0.09980961011626023,0.07061308115634346,0.04156263543222627,0.015121359065243034,0.0,0.015124002727038953,0.039260957337987616,0.0632061850877299,0.08812161813415975,0.11048608983744003,0.13023863309460038,0.15286088759396074,0.16922463383199804,0.1822152968057016,0.19687619199611767,0.2098819766054585,0.22112167381341447,0.23740692151377685,0.26260052890214314,0.2928521443892951,0.32551081681155497,0.36048123885611183,0.3931128495855791,0.4296603046574019,0.4682701953540085,0.5008322690692586,0.537509614067329,0.5764303966139611,0.6148906526668725,0.6470034265835498,0.6842843245411652,0.7232054498482081,0.7601490496119685,0.7925319206202215,0.8310585276901297,0.8699867123735496,0.9089149635874254,0.94783719428684,0.9841531946126144,0.9999999999999998,0.9800171701170112,0.941798961111456,0.9084288676507224,0.8727014423995401,0.8337914976985437,0.7949165840940451,0.7604743973404821,0.7258865625319468,0.6870134199893394,0.6480895114630376,0.6108689304232964,0.5787142367547322,0.5402351964141994,0.5013539108020721,0.4666201292269046,0.4324729329665795,0.3999177319572276,0.3744616582903893,0.35297991301454296,0.3214580071492168,0.29349938605063897,0.2937052021542452,0.2962108883644565,0.30130874185168777,0.32400430772574085,0.3267503424355849,0.30687925211623424,0.285633591761,0.2801681627587451,0.28676801742668645,0.2873720518368825,0.2917420017570902,0.2880723398705112,0.2872546090520378,0.2871379190657837,0.2819977496776054,0.2783408294780925,0.2770374177867003,0.2683958184043924,0.2615111001899497,0.2682763573579725,0.2764663605480415,0.28614932559748296,0.2918583674538797,0.287533035185046,0.291636550182627,0.2823532548635581,0.2662483465765755,0.2465664941952821,0.2223734936243913,0.19514883763036872,0.16593315479942072,0.1366975019456642,0.10746389030281156,0.07554431651777094,0.043079512085087535,0.01914973026079525,0.005951612513141803,0.024818239899436326,0.05134398405937013,0.07539161927894544,0.10031404407898936,0.12364383392723854,0.14423322956275064,0.16515809815748295,0.1867233642974655,0.1901636461436187,0.1987805304387955,0.20731296233141605,0.22089995924968694,0.2409435320841564,0.2684126627114927,0.3011744240646843,0.3330704428936337,0.3713481578609559,0.4102756759342858,0.4484072428232575,0.4803677431293112,0.5181268064839992,0.5570425778156824,0.5933354365569146,0.6261943951310134,0.6649038930268167,0.7038117594958411,0.7393397880314414,0.7728932797349466,0.8116819403936761,0.850389304624042,0.8833109024077996,0.9194141933509872,0.9492649768349086,No
11,0.6275016465036728,0.6103918798587155,0.5928416108028877,0.5718101169753259,0.5438046662555581,0.5139035275904261,0.47678955491826,0.44140223136992696,0.42590339053356574,0.41787292238336937,0.40101260243631065,0.3730778553773936,0.3426116226204824,0.31622578627286346,0.3113050496070051,0.3312857368116501,0.36294316733843146,0.3986842697518512,0.4359043601606375,0.4729608677546983,0.5129075859947717,0.5502806421940459,0.5827277694650209,0.6124513876076026,0.6281084512763911,0.6362725444400239,0.6439201167883043,0.6458827208838759,0.640394952808225,0.6441640778182688,0.6532282031903806,0.6583755101394299,0.6549824815220046,0.6449985822492988,0.6369500413415575,0.6478444397290176,0.6518371644737571,0.6665984771220339,0.6714707529196396,0.6511164187187223,0.6112540489914343,0.5681725007609969,0.5242569099608588,0.4767737258234751,0.42925075657622414,0.3841568863374579,0.3416356173478913,0.2961391628181893,0.2600833449036295,0.2146969531343508,0.1671772976300493,0.12199806000452018,0.08010220512201527,0.05154959332801057,0.07566477708586072,0.1177674635280358,0.1622849724626242,0.20979366844129765,0.25733497472550604,0.3042564751455561,0.34604642917033457,0.39223814817710656,0.4397764894072184,0.4873183927136119,0.5348210541097284,0.5778631621480365,0.6151608421569069,0.6620329280438874,0.7095745181134835,0.7571164214198777,0.8046281540829908,0.8490878181670899,0.8726670425267339,0.8425659302138889,0.7966575832283009,0.7550000350807001,0.7104531285961778,0.6725128495837315,0.6416688968189926,0.614264781519683,0.5969862620925831,0.5795245355674995,0.5571331391978794,0.5248392595677976,0.4938331364169756,0.4615425185163498,0.42789566973183824,0.3931564718733064,0.3593913462335704,0.3285744080745907,0.3082227694650259,0.3133177358689649,0.3399448867803275,0.3766224128758905,0.41553487546798096,0.4535866645350247,0.4913351112210723,0.5272787546203085,0.5622695601923767,0.5930041099965523,0.6172469178443333,0.6293476392018723,0.63853590094461,0.6416199879865779,0.635257331744946,0.6391161760241751,0.6425861999733692,0.6452848779331725,0.6530040489551338,0.6515141436435746,0.6377602429181933,0.6279958653087206,0.6451940737495055,0.6502478996791198,0.6651368904684446,0.6677383426027296,0.6451644998045413,0.6050842769744021,0.5597968501190386,0.5178487892353573,0.4707739717818759,0.4232322706658235,0.3756904879800135,0.32854186348124426,0.2864592034658985,0.24078191550083486,0.19324944969990376,0.14570754639350916,0.09816572149049507,0.05124237827795308,0.02640453785249175,0.05264418577443697,0.09754214678997997,0.1436785288477569,0.18545475397081845,0.2324287393827393,0.2799702446412071,0.32751214794760064,0.3750540512539949,0.4224537152967561,0.4654682246251575,0.5099862729348473,0.5574949689135219,0.6050368722199152,0.6525787755263087,0.7001206788327025,0.7476625821390966,0.7952044854454904,0.8427463887518841,0.8902882920582776,0.937830129023351,0.9845418005048908,1.0,0.9641086036241424,0.9173799898359806,0.8712183027951611,0.8294149791513984,0.7833967585788878,0.7417372121795937,0.698149397590275,0.6601739950668689,0.6302062300042385,0.610611423309981,0.5937666760148369,0.5714622464677569,0.5442667492696885,0.5146618593526889,0.484512994907833,0.4517547381035682,0.4184447797404264,0.3806775712253213,0.34327588674204834,0.3179887320372571,0.30733395395131297,0.32173386559389205,0.3576768397383551,0.3914446423040453,0.4291027215300775,0.4670604240838255,0.5039951724549184,0.5415799626650087,0.5730648147025871,0.6053462895392451,0.6307152585744374,0.6452048206518458,0.6522724252976858,0.6429198484557642,0.6374541906626441,0.6343745438965389,0.6414024005123952,0.6462317820001634,0.6458340577765856,0.6351613492518771,0.6204927175850014,0.6310267518869339,0.6419340879385931,0.6535691009323638,0.6585218709355171,0.6342667399673044,0.5933903573380642,0.5462229765664214,0.4986811803107966,0.4511392770044022,0.4036775962743621,0.3600141926906991,0.3161744854460943,0.26869835934487485,0.221156456038482,0.1736147517560508,0.12651548178182725,0.08452563982565386,0.038816721516326536,0.0,0.005118120265911408,0.0474301851461717,0.08999382490788521,0.13500213476695533,0.1825229782082467,0.2300648815146413,0.2776067848210357,0.32506761851056165,0.3687422861719248,0.4125753835782965,0.4600477024805615,0.5075896057869559,0.5551315090933505,0.6026734123997434,0.6502153157061378,0.6977572190125306,0.7452991223189246,0.7928367814200227,0.8389980272692786,0.8807702551473738,0.927736924590082,0.9719152352214209,0.9667563629944734,0.9209300023118376,0.8752124837413705,0.8331823596186364,0.7872793810828359,0.7455956017293376,0.7022234667760849,0.6597560076137375,0.6243893434874664,0.6014563726946479,0.5856770100604524,0.5634520036633536,0.5384659652188281,0.5105371014896108,0.4811775482376476,0.4477679291363402,0.4147184355439383,0.377218233963179,0.34155316626904,0.3139089533229187,No
12,0.4804141056081341,0.4943767141410556,0.5045470148254071,0.5044679915472545,0.4945068645916455,0.4876452822717092,0.4858591988524679,0.490365032403616,0.5034263073127325,0.5140235271387981,0.5208369008437395,0.5286948330641812,0.5329104789349266,0.5369622393035411,0.5396257971778378,0.5423606821470826,0.5460650263301163,0.541091285852366,0.5342482181231574,0.5388592664968639,0.5503404677217725,0.5630194652667673,0.5719285311328519,0.5794330786714654,0.5715276304644488,0.5475488337882073,0.5161604010598384,0.4847061838894904,0.4556003832400513,0.42270982700692783,0.3942447816550362,0.3618739754190992,0.3303445531929053,0.3012903618814352,0.2679435935834001,0.2343942924330709,0.2012830116227401,0.17277633640160106,0.1404678688433998,0.1069216776950509,0.07341288696001935,0.04298964795870908,0.017862438178679718,0.01781857241487772,0.04292659112897823,0.07333434118891903,0.10684255142928656,0.14039208811510528,0.17394162480092445,0.2074911614867434,0.24104069817256224,0.27459023485838097,0.30813977154419997,0.3416893082300193,0.3752388449158383,0.4087883816016573,0.44233791828747626,0.4758874549732948,0.5094369916591142,0.5429865283449329,0.5765360650307523,0.6100856017165712,0.6436228028789139,0.6751356820026401,0.7041907919946477,0.7375580158695301,0.7711075525553492,0.8046570892411679,0.8382066259269869,0.8717561626128059,0.9052209988855836,0.9269250964132638,0.9072348267975684,0.8834180641031568,0.8607319387656911,0.8358554196527659,0.8064881040528498,0.7757486211007205,0.7423026187340938,0.7125223023962497,0.6818282710932788,0.6496901299688502,0.621212795846833,0.5919605876619316,0.5687502304525651,0.5465464744810069,0.5270430165345077,0.5158675685196294,0.507169498818216,0.4962056729097661,0.4833502171157804,0.4683052903521181,0.4524976966860483,0.4300108009946391,0.4111677194543799,0.3858195791276847,0.36290400623231606,0.335765744468568,0.31182472016229124,0.2946596633130316,0.2805340198295382,0.28448353961982864,0.30273114001315604,0.3233796075133918,0.3469488237325984,0.37208579516054097,0.3960798054741438,0.4203097980701245,0.4440058041606141,0.4654621646307373,0.4867665071403045,0.5060197227269416,0.5164443665354195,0.5181537229408764,0.5082063532437979,0.4992154304927572,0.4885488934256729,0.4872386788342256,0.4935676046316551,0.5005270815783291,0.5119250918988509,0.5215094624383292,0.5284591639476572,0.5318311407132044,0.5304049802710424,0.5309554560410175,0.5287209362737693,0.5298735130262733,0.5310595341505513,0.5324899066685993,0.52862753721616,0.5271795152727068,0.5169282338761896,0.5091506441092761,0.5175292753037121,0.5296679420209871,0.5381079302079061,0.5451554966397281,0.5410894336611579,0.523454857157855,0.4957405669436916,0.4655593701811491,0.43721929582768493,0.4044693567526616,0.3749398254866694,0.34396123926416644,0.31043542937447377,0.277683174025385,0.2493375477390972,0.2165107774757256,0.18296752234769387,0.150995261643303,0.1222935706942817,0.08903907223715612,0.0554896677551282,0.02225608244417077,0.0,0.010233955289464913,0.03764998489130078,0.07099835303628255,0.10454788972210173,0.13809742640792064,0.171645477140009,0.20402691663985428,0.2275484167381563,0.25704502347163904,0.28588134062965664,0.3192174487518823,0.35276698543770124,0.3863165221235202,0.41986605880933947,0.4534155954951584,0.4869651321809776,0.5205146688667965,0.5540642055526155,0.5876137422384349,0.621163278924254,0.6547128156100719,0.6882623522958911,0.7217850549598881,0.7525527360898039,0.7822705346392143,0.8157347664488501,0.8492843031346697,0.8828338398204885,0.9163833765063074,0.9499329131921268,0.9832879381700343,1.0000000000000002,0.9729381719123452,0.9394112529482326,0.90701372468633,0.8785581875535606,0.8454859040715121,0.8119369508514853,0.7788752097726435,0.7504339059550886,0.7180113863266437,0.684938809312974,0.6564799018292085,0.6245535954014211,0.5962478309939743,0.5686901840057352,0.542458264084948,0.5163891041213735,0.5007638553148674,0.4907538594183192,0.4817851534593665,0.4688176342174777,0.4564796310997346,0.4406896498038835,0.4239713449163016,0.4047145128455005,0.3803912727929616,0.3607973552134853,0.33743901896828343,0.3153078152050627,0.2942643314815944,0.2756032480337125,0.2660996829330047,0.2767887397393549,0.2938901675751926,0.3165027986431681,0.3405146998246714,0.3650532973677407,0.3902027662112273,0.4153748256559662,0.440361765115006,0.4607060258735156,0.4786100395380231,0.4923165550909017,0.4987490643243653,0.4924131339783258,0.4852137132256493,0.4757635438283952,0.4734497161309861,0.4796316966201781,0.4883225527393091,0.4995863929712352,0.5074350103971104,0.5144859540495375,0.5211856610162471,0.5259770017480327,0.5271442346909998,0.5316481516077083,0.5269762012542536,0.5280357563957812,0.5326918222496051,0.5328025644298664,0.5258640582743854,0.5137158825097312,0.5161326360380012,0.5286987902982088,0.5422953872776559,0.5516591995019546,No
13,0.10904453333867248,0.07481265993240016,0.06454304463776506,0.09597528485751616,0.13446263706718153,0.17353020160739674,0.2167141837551345,0.2568149703803253,0.2610089428856739,0.2851571276891913,0.33198278474170073,0.3790166040474772,0.4283702029883083,0.4741583425866421,0.4926829925166765,0.4968589555292218,0.495707093904995,0.5031520329509627,0.518578945281652,0.5206563358658902,0.5512777229761199,0.5921921639188572,0.6336048752120009,0.6616871607469055,0.6735212014844316,0.6633681251688983,0.6529850790776026,0.6602597723182331,0.6486624815849822,0.6313989225268897,0.6267471216773048,0.6243379431120666,0.6292928661014614,0.6281471774697536,0.6329452692047328,0.6505265889535357,0.6633168609805324,0.6763553155230351,0.6781822832064341,0.6789185690598074,0.6875742036566141,0.6786997749898422,0.6684415177115557,0.6766699355567256,0.6777411214907076,0.6662615275399764,0.6475888995520813,0.6473193334530365,0.6668690038252725,0.7029925420235903,0.7275596971286202,0.734486588291196,0.7522233318973301,0.7477493860084772,0.7495033622985787,0.7210482945160794,0.6715597491216576,0.6252642689206007,0.5812722197991869,0.5342980940034405,0.4771677148422484,0.4241381210453359,0.37516326834441815,0.3176657939879877,0.2614771529749269,0.2145740503132092,0.15910466587241068,0.12503261141782265,0.1320251251051794,0.17118879833749245,0.22599830072245866,0.2837322242240996,0.3414712757236373,0.3992100269017704,0.4561049996125426,0.5032487618255115,0.5586951269865226,0.6164319640679887,0.6741710155675278,0.7318652565522499,0.7840555354158043,0.8337889341947433,0.8913926524123406,0.9490960181891924,0.9999999999999998,0.9954343759335964,0.9482773198972508,0.8970547920272212,0.8501491684991296,0.8012984428515384,0.7521210927307298,0.7079287662303411,0.6736734182759261,0.6444224194926529,0.6129953374150288,0.5949266407470819,0.5820883632712566,0.5689836110073945,0.5428070075909914,0.5126452299232821,0.4790881246593248,0.4472222318139105,0.40678467839116217,0.3677206449767079,0.3267622884042989,0.2834521782272441,0.24288288177204564,0.20059155543834906,0.16412159002053173,0.13491045607185814,0.11652175657720346,0.13007532140374267,0.16798776682428773,0.21202938997136125,0.2658576413990565,0.312707599197152,0.3618551000406236,0.4082321248954426,0.4488151772535944,0.4951547705366604,0.5415924900801911,0.5852582061340212,0.6248657206239863,0.6597804892396912,0.6838488978417165,0.7034154212161419,0.6968875986326278,0.6906107633093359,0.6796958197917664,0.6699874892455602,0.6538525891472029,0.6578571861744742,0.6558102602897324,0.665028969876239,0.6769966852507052,0.6874862834317443,0.6701269023671534,0.6645172863773567,0.6695360610515484,0.6780065233647303,0.6773217721794531,0.6672774838937154,0.6715640022150617,0.663225705555065,0.6529226022606907,0.6617667572484718,0.6525264623592684,0.634525532802426,0.6143471224991839,0.5871015928093788,0.5727761662185944,0.5864120239916921,0.6141153080895865,0.6319284318105531,0.6464241067267598,0.6638948993215046,0.6777101177425069,0.6725021521311441,0.6324593160187961,0.5862391295598675,0.5404975831249079,0.49431201507181505,0.4387032922934517,0.3851379638339016,0.3366585519797083,0.27920850826592525,0.22274562458115368,0.17575361547492485,0.12033119232257827,0.08126098321585062,0.08966721264307798,0.1374586847976602,0.1849009175390428,0.2397866462479024,0.2975206544331428,0.3552366085553027,0.4086486891005941,0.457306908813304,0.5147422912779567,0.5724813427774941,0.630220394277033,0.687777232442125,0.7374960316888213,0.7897371956929959,0.8474420311218445,0.9051777429883148,0.9593970936605588,0.9567021192288464,0.9059554914390572,0.8574717568648589,0.808688276678825,0.7571506287504308,0.7103530133209575,0.6619312313515497,0.620838949955073,0.5880331957836888,0.5637175631457116,0.5505510798797786,0.5326645887735004,0.5105481010221882,0.4874423932455929,0.4580821412906111,0.4232662046195219,0.3832270338156125,0.3440097002498044,0.3083252954948479,0.26742530297786216,0.22681890723017986,0.18112507956689128,0.14065499764858247,0.09929713517593107,0.06192922249885924,0.030516377056063027,0.001898048833008703,0.0,0.03151627222266784,0.07733597213364929,0.12086329303270048,0.16752553097395473,0.21609346445315736,0.2627604385585509,0.31119153719988746,0.35785090014351106,0.4042884488561975,0.4480561930519664,0.4912062014589085,0.5312737401907521,0.5735509904605862,0.6118360533125966,0.6341580611683779,0.6219117791779387,0.610025257625803,0.6051432244229134,0.5952339435278067,0.5832720012634998,0.5702692201873838,0.5709594489696654,0.5932705300896057,0.6198158186277423,0.64236450761196,0.652896053330146,0.6729258609281791,0.7047052286601854,0.7321333539299497,0.7481327165092637,0.7646356150578162,0.7846276621067603,0.7773115778382194,0.7709642625241828,0.7516684527654778,0.7661274518889172,0.7867298802696949,0.7801752627910694,0.7691407727509578,0.7607951495117871,No
14,0.3670195599483255,0.35358119239352925,0.3310066068814517,0.3059349095031365,0.27775939221995083,0.2483984921631945,0.21745396667776107,0.1863226751219067,0.15383685046805362,0.12137806081330615,0.09021762130805278,0.058085526250067125,0.02601019071979427,0.0,0.010773994549172494,0.0368682296895787,0.06840673078237658,0.0964653624662386,0.12534576966455702,0.15429082620534795,0.181034569882756,0.20979599874896795,0.23777036358731274,0.2632129810262593,0.2852044405023817,0.3074123227049943,0.32694947011708764,0.3463355617162487,0.36748474862612107,0.3933268247228636,0.4211875608346689,0.4463577372044199,0.4725202275043363,0.5016912550954793,0.5326485513192951,0.5676610998047673,0.6009280677186934,0.6376745016032925,0.6764139991242221,0.7151610739028174,0.7535963772309173,0.7868170888104398,0.8237020653951399,0.8623285346777716,0.8965710293794114,0.9322586138039964,0.9705824080608588,1.0,0.9987884218990216,0.9685282073352144,0.9348493280534318,0.8962932886870245,0.8576258474464185,0.8228934924510356,0.7877323042078412,0.7517474236600272,0.7178119164387933,0.6799708496742602,0.6471439194256361,0.6094362185495608,0.5710040592464194,0.5377019556616935,0.5008956962548985,0.4622760222944522,0.4332827388966127,0.44486272617170575,0.4491858080593541,0.4452963582179388,0.4324022407353527,0.41408053256980737,0.4031468886304304,0.4045933985437105,0.4134143987836361,0.4154677691506517,0.4153283990551446,0.4100053177393532,0.3983092902203567,0.3977738359394771,0.3937758661339848,0.3941428299907863,0.4005976339708075,0.4069136272119092,0.4075606342234286,0.40193361665099503,0.3930402675926112,0.38273473994008794,0.3650228480830919,0.34286808394586804,0.3156975152101629,0.2820443174017817,0.2508817749992869,0.2198856234868556,0.18887114513435987,0.15664430487563386,0.12404479663801582,0.09142254393771676,0.06089818495044341,0.032437266842295975,0.02514698101537161,0.04848166984969615,0.0795077484299086,0.10962575599312574,0.13867044882126556,0.16687612275374294,0.19284913330120898,0.22006098365340865,0.2461866931811416,0.2703618065952238,0.29632744500012675,0.3213927889471977,0.3397130186128352,0.3579721312764728,0.3746850227371443,0.3950863446084281,0.4173372421712589,0.4410682253256448,0.4694436249142242,0.501193003971617,0.5345362330923846,0.5701357140313472,0.6042463026503129,0.6400510557886152,0.6786265409338992,0.7126664582851807,0.7485829457002544,0.7872954798066223,0.8239005736527993,0.8573627807802247,0.8958285167860383,0.932316189774244,0.9612858726128362,0.9589695601310466,0.9253829160734932,0.8895828826997785,0.8555044915043433,0.8198718153160987,0.7857290292736014,0.7501607479324197,0.7159229643319502,0.6774083932700341,0.6432168534177614,0.607477854848911,0.5687574557608752,0.5309677324273574,0.4982336847346725,0.4602215577819393,0.42147703043138507,0.3855481781936341,0.3902316642081942,0.4066689030529882,0.4072727688806981,0.3986974082562835,0.3817619907221905,0.3756346592411939,0.3717416667915363,0.3691846828729799,0.3653957306751601,0.3615846460826566,0.3615256997001486,0.3615272986726144,0.3627254823302553,0.3719711774507206,0.3701782603775132,0.37559385969487197,0.3819613606131776,0.3843438420387459,0.3782961296605962,0.3701939785946951,0.3640290003843418,0.3484136254942618,0.32606596206815874,0.3002634106136439,0.2722091935522961,0.2414440469210273,0.20769074475517854,0.17475105197019314,0.14235389279685107,0.10994691960140733,0.08061858418870771,0.053174811028666384,0.046651080759614216,0.07056365284784971,0.09846904814369473,0.1265845661706133,0.15944206382761195,0.18902542231022726,0.21750428762410398,0.24563645476748674,0.2734894110623121,0.29987784276228835,0.3253712845312049,0.34678878738244223,0.3657588381175514,0.38077876533247096,0.3938634875326295,0.4084549969462821,0.4311746755950869,0.4602589821120959,0.4924336747961176,0.5253079155646128,0.5580441978642305,0.5951213136181024,0.6289543057340006,0.6650995823824652,0.7036360544925389,0.7373744613688679,0.7736314722941047,0.8123473377538709,0.8486384170663988,0.8823505419190141,0.920671451093828,0.952481385057972,0.964528094350848,0.9434099978278694,0.9080250692043664,0.8693032947929147,0.8305561814981361,0.7919408684336104,0.7579459886333793,0.7220424524866638,0.6867492829220185,0.6521613950010541,0.6135345705768256,0.5783378793474596,0.5436320727747608,0.5049560244291567,0.4674218763354143,0.43468113055826185,0.40890104139437145,0.4145532617859713,0.4127697819582479,0.3994941716334968,0.3828927024137541,0.3680524465009305,0.3627828354872176,0.36704571538960973,0.3619239521783737,0.3558324639136325,0.3458698669259628,0.3363757455085883,0.3249027396518589,0.3165126448644351,0.30476257568857656,0.2864195223473276,0.2748944368012736,0.2862184995063841,0.2997930594213105,0.30704674387806463,0.3075433646027643,0.3034510871147473,0.28889452244742864,0.2730125106101384,0.25033257574909484,0.2229113588920295,0.19768012469736407,No
15,0.620963875720895,0.5926709250595558,0.5578639242183253,0.5226818725629679,0.4874720740089283,0.44866670042489,0.4065881811706623,0.3696055411093958,0.3304378000025977,0.2923532033408508,0.2556927151247145,0.2158713245497802,0.17840026433783718,0.1416216248735226,0.10142244193704007,0.06598609562007185,0.03088755868330595,0.0,0.007600961483540836,0.039924481075770735,0.07526366068205281,0.11284394300262345,0.1480262062298764,0.1832030264585195,0.2183851879134594,0.2535670561921385,0.2881636435623608,0.312960658425269,0.3410822693629819,0.3736171986282336,0.40462821217100603,0.43596180361036063,0.4695731231727299,0.4971226113306767,0.5234284605202141,0.5474678624795642,0.5693884884333967,0.5866721180352285,0.6025692196176823,0.6223935753755329,0.6503498603290144,0.6845216044092283,0.7209118015383688,0.7629263565238654,0.8001121464808826,0.8418027846623165,0.8794212031154799,0.9201551925943352,0.9485406768992602,0.9329109217323402,0.8971192308942367,0.8540033161297803,0.8100781215384784,0.7661624813513174,0.7245565839713887,0.6871596492182891,0.6435631457494934,0.5996990082383785,0.5615715224008159,0.5535007309857874,0.5866237183981723,0.6255727707145765,0.6622530540511918,0.6913417874083535,0.6967203719118249,0.6934376943649889,0.6861538570788207,0.6716298139443034,0.6561759281727911,0.6600407384641765,0.6661061456721719,0.6691993747141464,0.6687775556011933,0.6619696360926951,0.660017865028187,0.657026353949952,0.6508756728362882,0.6449731906328847,0.6396906797173966,0.6312100891268418,0.6238698450050669,0.6267735107743954,0.6356397884846002,0.6491537958774051,0.6592406508504084,0.6571883951963705,0.6439944119314694,0.6248862442494939,0.5960926689850569,0.5632291789742087,0.5289414694973801,0.4932098858607067,0.4567323895244079,0.4180762849910941,0.3806186665902577,0.3439556084725163,0.30713142186199305,0.2671038968647325,0.2294140715623493,0.18818718370900775,0.1452762641392208,0.10883430502146364,0.07234769209306824,0.035642613490271084,0.012890528745517993,0.033952217152745656,0.06675379520114222,0.1009661870135311,0.13663177958839634,0.17144436523604967,0.2060610119956944,0.24685793772924916,0.2805086121527661,0.3134213938676814,0.3467942327212129,0.3807034804611965,0.410192768471228,0.4394730706675455,0.4677249965879472,0.4941065153341627,0.5203401089182801,0.5433170962453567,0.5621649660681417,0.5797528483851225,0.5983824730121555,0.6248925847276724,0.6584787160273101,0.6936215717938518,0.7301702622833103,0.7692650005606851,0.8084039892253875,0.8487573044544915,0.8871516610145763,0.9294803954432752,0.9576580114945746,0.9481906380328708,0.9135669239332668,0.8713326413132906,0.8274110660709518,0.7841163891776629,0.7471752111774891,0.7048190201604704,0.6608962457544817,0.6176819632855778,0.5808744621711753,0.5519766180824973,0.5752474903924228,0.6165107698905735,0.65322960033152,0.6877223695791167,0.6966502604279955,0.6967648054046734,0.6928808359145454,0.6766882929053147,0.6653201256652469,0.6669846324707617,0.6631558455396506,0.6688800507358904,0.6648440006176476,0.6597149084496546,0.6529466477719802,0.6501056805737079,0.6430034537171062,0.6373239246741934,0.6265286814049901,0.6163720910675513,0.6125439630123372,0.6093138778272283,0.6208655563751063,0.634867416754361,0.6462624758731933,0.6580702897421616,0.6570412718357329,0.6395099785099508,0.6174967717380911,0.5876240187431033,0.5534779136266142,0.515160724501046,0.4817791273036634,0.44661155931191054,0.4096400033861526,0.3723139900727682,0.3355747407524682,0.2987180196796885,0.26024839351316065,0.22350006996410526,0.18607643658800774,0.15081338092468066,0.113884027435471,0.08406658137049161,0.09077611643059856,0.12191250603549765,0.15482000002158058,0.188078422867879,0.22292116702091536,0.2559321290363402,0.2898269975760833,0.3227736549745329,0.3565000748956363,0.38737579518384596,0.41988181293766746,0.4547847542368325,0.4816812812922188,0.5065528083119267,0.5286474604863375,0.5523970083239161,0.5725259536868489,0.5909616210272274,0.6088763843125541,0.6342809856384698,0.6637390349661879,0.7001099010324766,0.7381999388262489,0.7786343717133032,0.8176418275686043,0.8570641249346046,0.8900608455573277,0.9197326211795516,0.9615560122159826,1.0,0.9986155438344358,0.9659607900166072,0.9234046121711882,0.8794803475229932,0.8356426296549294,0.7965447120756944,0.7568423770527016,0.7129654552601178,0.6691385042963712,0.6305395087799707,0.5968325682260963,0.5567658857072456,0.5500140320384631,0.5823652748756442,0.6097917617695977,0.6477770186313895,0.6843424662245877,0.7094024455938405,0.7150830972969403,0.7121236889569412,0.7012657014133221,0.6861898944527624,0.6862524443391388,0.6830814717511641,0.6858581034645946,0.6924714890855627,0.6894852582161713,0.6875839166814596,0.6845787481056923,0.6780826984436458,0.6709504092274382,0.6672097700722045,0.6571826118683021,0.6463880797943687,0.6417097850940209,No
16,0.2304465319028932,0.2413921105034602,0.2575228887520589,0.2793143649277348,0.3047671848856308,0.3281973409885821,0.3486633481487984,0.37415258571719856,0.4046196143819572,0.43475060055172055,0.4617067719156451,0.4936393301267099,0.5237911474907428,0.5507366365439414,0.5826709322396784,0.6148195276938744,0.6458561568443444,0.6722208721980383,0.7038459490931477,0.7359950303917788,0.7670723602661738,0.7884325502226449,0.8151988250279442,0.8424743190132218,0.8744686824675973,0.9066188333022348,0.9385981780021668,0.9657975696747592,0.9927606863239816,1.0,0.9773094607948044,0.9454093937448408,0.9141076846454992,0.8877778575811621,0.8563836841131601,0.8242340151135805,0.7920838421619105,0.7599336692102399,0.7277834962585696,0.6956333233068994,0.6634831503552292,0.6314008400670093,0.6032223466281919,0.5744258193245892,0.5423084495835806,0.5101582766319106,0.4780081036802404,0.4458579307285699,0.4137077577769,0.3815575848252293,0.3494090273152717,0.31836235267130064,0.29197377289796833,0.2603827034816397,0.2282694316593685,0.20375929295192965,0.21820560764152666,0.2463746677699681,0.2680208569278739,0.2753731763534406,0.2753910152622965,0.2760363708720961,0.2619941846423945,0.24720035620717076,0.2283632848787533,0.21039166450037186,0.21605077166604136,0.2294999932084434,0.24248782461929566,0.24779996672645302,0.2479334142551077,0.2479334284948405,0.24793342849483915,0.2479334284948385,0.2479334284948376,0.24791341694645094,0.24523143903331726,0.2431835010594352,0.2477951906706821,0.2479334124372614,0.2479334284948325,0.24793052915634786,0.2466938216026384,0.24516404439094666,0.2479031145821757,0.2479286033111885,0.2463232351530915,0.2438770403390791,0.24519620530778094,0.2406145747679957,0.2401741131551753,0.2347048027088949,0.2299093448998888,0.22203698546962647,0.2182805177583549,0.21936247741754025,0.22532918547572775,0.2308684247362505,0.2355201002312899,0.2382950808147952,0.23280614212933706,0.2231718227202486,0.2072052701927181,0.18859425596951215,0.16773624779166507,0.1490187386010957,0.12574324013298788,0.1038095906401726,0.08118984205724611,0.05880133767201956,0.03940462615219032,0.018090862841230404,0.0,0.003580338986967746,0.01823139079294589,0.037007536338161014,0.0555390456467737,0.07488104287294517,0.0998485494412258,0.11857833060716927,0.1346652226141276,0.15074031064755067,0.16680109283763755,0.18107811162165444,0.19680807246999368,0.208846934758113,0.21234750141579228,0.22309258003468768,0.23355397193373384,0.24676650515101795,0.26669950550090804,0.29014163203296506,0.3157178851437565,0.3415455106147214,0.3712603292894217,0.4020501261941008,0.4285576405075169,0.4602732944102521,0.4922842542155164,0.5196269404572342,0.5493122007246847,0.5814473384300691,0.6128593891139482,0.6391945573336479,0.6704730391955931,0.7026224028716912,0.7344427374444651,0.7610440934768117,0.7916513450502527,0.8237971921114722,0.8559473493085429,0.8878736768979771,0.9148650942636554,0.9449779967605716,0.9761164484925386,0.986651022198153,0.9659694514703988,0.93424634890445,0.904809774058267,0.8772532362555505,0.8452015192124456,0.8130847973219484,0.7853353310894529,0.7630482286387754,0.7314525615685386,0.6995025406208242,0.6725250046354463,0.6424206366743976,0.6102781087041809,0.5781279357525106,0.5459777628008409,0.5138275898491704,0.4816774168975,0.44955727722998096,0.4205289207043588,0.3925769706622668,0.3605027161258514,0.3283525431741809,0.2962023702225114,0.2640521972708409,0.23190207370377824,0.2003763501406386,0.19052106194219087,0.21601415080963185,0.2408530609619601,0.2613737150767577,0.2699790577385821,0.26930163287417863,0.2621279007994446,0.2488355964185112,0.2277794578640497,0.20853821512000392,0.21457018977199405,0.22589851361378896,0.23976088406173798,0.2476856334826485,0.24793338880532234,0.2479333997123514,0.24776040571087646,0.2441976269459813,0.24716944313403236,0.2453762498346981,0.2457621132344632,0.2430668917124517,0.2441885629813392,0.2405925039700718,0.24050741049515098,0.2403375308132838,0.23535920163207516,0.23334700619372015,0.2380541279961865,0.23411001726709224,0.23296693528648585,0.22950939018674954,0.2322600439154263,0.22751582925347136,0.22509800813120173,0.2192817892087935,0.21811721671958015,0.2136635384902026,0.2108082459202816,0.20869281409778684,0.2093552482480523,0.21671101328338785,0.2182253291180596,0.2180700736868608,0.21293322856635769,0.2041011643931292,0.1886285449224714,0.17052900631157253,0.15144679576291753,0.13161042083126204,0.1064309044844205,0.08399895112867495,0.06395067492974027,0.04194186917401055,0.025056741272541986,0.013810426977078016,0.020189394502954986,0.03880500233003215,0.0572798227553113,0.07655066540813649,0.09731517743366468,0.11437266718887253,0.13316722673358816,0.14709390068520212,0.14503524546984806,0.15647439412904096,0.15886484758574104,0.1628543172059671,0.17500703378033533,0.19021370121669426,0.19685078654080268,0.20699059269482345,0.2107724593671372,No
17,0.4887487588530173,0.488391764155081,0.4816796067427776,0.4847757662739847,0.4827484066685377,0.4886126684489678,0.4887487588530315,0.4887447979814741,0.4868332711701604,0.4822617378759304,0.4864934978119786,0.4779036465651478,0.4691639882654803,0.4667045125785026,0.4602863524857013,0.4625907839323336,0.4739714129584018,0.4929067810789103,0.4967849745884416,0.5121602741548466,0.5211050472472354,0.5241100818494235,0.5357151067851751,0.5411139082551046,0.5207871261393346,0.4828659889188847,0.4400273571239892,0.3908829114200241,0.34870747654969225,0.30227413704277484,0.2528312943248721,0.20990611275287008,0.16432857913551646,0.11473315897942625,0.06534603468583787,0.03292884235818438,0.051233953287800116,0.09183941962474296,0.14100547428762722,0.19063095875866695,0.2402313215102534,0.2859491972702421,0.3287398542223785,0.3781860985977448,0.4278115830687845,0.4774370675398247,0.5270625520108647,0.5766085462119963,0.6207021556265,0.6650530861736654,0.7146176918499421,0.7642431763209822,0.8138686607920219,0.8634941452630616,0.9131196297341015,0.9627031228925842,0.9999999999999998,0.9706306121832344,0.92114782130198,0.8725041492129597,0.8314123437620149,0.7832184960220412,0.7352698178498585,0.6941120314994806,0.6489098821170163,0.6075824858748875,0.5686315879119543,0.5318541700620489,0.5035420408539717,0.4829323539309618,0.4679454021065657,0.4637218803373489,0.4510900247662599,0.4319224638206509,0.41363187473863183,0.3970180784111619,0.3658933927947043,0.3377952287813473,0.30510239392022265,0.274019517613006,0.2425594856893893,0.2094807805216674,0.17640168500049214,0.14337206810818892,0.11907658581478398,0.1220889944427732,0.1451288358118732,0.18081741071877988,0.2156589969952587,0.2528381273656788,0.29225156473168035,0.33534343873095085,0.3729068431255138,0.4120708859433828,0.44358190152589705,0.4771211652065817,0.5000312297190501,0.5101807013436306,0.5117303706041829,0.5151951289640004,0.5086498464555735,0.4974832631889812,0.4966567785596026,0.5061577660208461,0.5158977290431961,0.5209071653644244,0.5104741455020285,0.5069139486772359,0.5106115205976107,0.5104523547293713,0.5036915542538638,0.5067229101181621,0.5058233661272669,0.5049946126596108,0.495173433726432,0.4892713808017242,0.4991396058542173,0.5130610910271203,0.5276086849546513,0.5286558916493522,0.5312847595772572,0.5408956304148294,0.534796219248511,0.535689155313062,0.5042695405285667,0.46352732431653904,0.4153702434263844,0.3741757951641178,0.32636884700688484,0.2772385349029298,0.23566087452123985,0.188433516317708,0.13882953010545585,0.09242374057868784,0.05129750946446854,0.023133629294721736,0.0461738861039831,0.09502905099080096,0.14446380990687446,0.1873891532613372,0.2329870284246647,0.2825840623374616,0.33220954680850245,0.3818350248549214,0.4312160548859025,0.4737608440482111,0.5197856196400731,0.56939017111862,0.6190156555896591,0.6686411400606982,0.7182666245317397,0.7678921090027788,0.8175175934738184,0.8667701475349918,0.8892591595018041,0.8501350898996332,0.8083747160530688,0.7591605189003963,0.7134053243550442,0.6706503985647014,0.6252719846361274,0.5854695684369238,0.5480397490089173,0.5148541143958025,0.4909376519417683,0.4711123972038141,0.4564911252514192,0.4478333215009658,0.4372991235795236,0.413499454646453,0.3943509673596324,0.3774295512235664,0.35109631712526923,0.3208536080889288,0.28554175381349034,0.2522953409737563,0.21921610824360327,0.18675462649856334,0.15656510417231884,0.12534967456861626,0.1039173284163295,0.10210656954572372,0.1256851916987447,0.15822664287378285,0.19533944215869287,0.23365369256729274,0.2725063924897362,0.3097802435598698,0.34704512349689903,0.3843003042413873,0.4233120260383316,0.4522380879355326,0.4766957164514685,0.4947831910339231,0.49933524665513,0.49121585442293897,0.4799286858887248,0.4778070041683504,0.4778019608081514,0.477886393673558,0.4837782638551609,0.4939171074618083,0.4894581872970818,0.491374119379199,0.4995146939573807,0.5070207130717432,0.5106335574120917,0.5135579637145922,0.520665827488312,0.5102023158301237,0.4907466455834697,0.4792728998404685,0.4891792344485095,0.5071998173675192,0.5185548371308799,0.5346357335274468,0.5432518266815918,0.5406940268370626,0.5374768704436059,0.53528444383686,0.5143554331363811,0.4728671262874416,0.4243379576783597,0.38322586623771293,0.3351267232902497,0.28550887064358155,0.2383321523771298,0.1967323231347522,0.15206217370410235,0.1190106324874507,0.07924298415283015,0.0317865925108205,0.0,0.02154032630398306,0.06997205347857638,0.11251650856060104,0.1585412841524616,0.2081458356310082,0.25777132010204795,0.3073968045730873,0.3570222890441268,0.4066078240092248,0.45190467334130896,0.4950989041530436,0.5445774288832026,0.5942029133542475,0.6438283978252866,0.6934538822963268,0.7430793667673663,0.7927048512384054,0.8421695657371757,0.8733341697515191,0.8393075096217018,0.7897916165166274,0.7446198407431391,No
18,0.43078491444992384,0.4533847446735355,0.4882471534889608,0.5066265904858611,0.5116447794800074,0.5159172562530565,0.5004560381756042,0.4622495543097451,0.4166041969274283,0.3685223264646287,0.3253831255677424,0.306316341317602,0.3023214407613564,0.2878085187196231,0.2896405720407769,0.26674332497843345,0.21927715570689127,0.19865636759893635,0.2266859333064808,0.24703115690782476,0.2261366092802952,0.1868712932597916,0.14718189622483854,0.14156838339452227,0.13609953781607054,0.11416383937681253,0.12332809154733693,0.1384685072827927,0.1152749858946891,0.12381194490369075,0.1713331230157975,0.2247182543601025,0.2781368680455938,0.3315554817310846,0.3849740954165764,0.4383927091020674,0.4918112401443404,0.5448122062353138,0.5910384596385925,0.6418045531772292,0.6952129672053915,0.7486315808908828,0.8020486136567293,0.8542859448622809,0.8997652796555815,0.9520276608553501,0.9999999999999998,0.9859666215695192,0.9335690019633148,0.8837714534306411,0.8367731403539251,0.7835621313156389,0.7317442843302395,0.6861916993684147,0.6400374007925587,0.6040083622879362,0.5587637863817656,0.5150832526608411,0.477719429781311,0.4483983370938238,0.4291588929991601,0.41272958755965305,0.3990642161047002,0.3785517377128161,0.35210111783767584,0.32526695074807543,0.2950753189747017,0.2637689841501567,0.22471586839203428,0.18490406237241253,0.14718595876017515,0.1149569525888412,0.09902351671572872,0.1108655908278764,0.14303729679521582,0.1804539214859726,0.21615753383372785,0.25180093465539066,0.2890334066142588,0.32271945453985,0.3480256192447424,0.3623820757136289,0.3583613478941112,0.3459411087455848,0.3355482601570323,0.3328567000359306,0.3398758207065229,0.3511366320776015,0.3620582177365628,0.3677861946369103,0.3764953010427672,0.3836190339800853,0.3839468143842193,0.3838364254219471,0.3749942415736549,0.3449731771014965,0.32695549904541954,0.3311249356383288,0.3598885982626181,0.3868692672515628,0.4081290304349423,0.414641277973687,0.4091477190087016,0.37354256207379577,0.3273683195380095,0.2818315264499416,0.2350843674311212,0.18564567858042905,0.13409327046099873,0.08842076346434148,0.03622911835877951,0.0,0.012775812976855372,0.055570143902732516,0.10760994971235416,0.16102683035055976,0.21433404269599587,0.26235824417779163,0.31107463268704083,0.36442847476839296,0.4178470884538839,0.4712657021393756,0.5246827349052212,0.5769200661107736,0.6223994009040743,0.6746683382758256,0.7280859602426991,0.7815045739281901,0.8348259475948965,0.8719075211344023,0.8368604947915095,0.7835621313157188,0.7317442843303208,0.6861361680681161,0.6335765604134473,0.5813081596075407,0.5358318201369461,0.4851995132296119,0.4414459471882029,0.4006424818639285,0.3646071856016282,0.3409375408043398,0.31924944556239,0.2973790125327318,0.2733481914181985,0.2525106278577194,0.2267192637103457,0.1971352142432876,0.16458265952238005,0.1316556421615689,0.10109691734250403,0.07270659934492474,0.04991941110997344,0.052233432752113666,0.07476297788746677,0.10684808607015396,0.14510634537663636,0.18716263070340225,0.2320208237736128,0.2703291476199672,0.3072373101749273,0.3427431292972065,0.3718996249293569,0.3888917833467416,0.3864633907701678,0.3762739871647738,0.3680348770119981,0.35979895568229997,0.3645341709404768,0.3765154282999119,0.3965026038136656,0.4134650181191064,0.4238477662976394,0.4326451508780715,0.4355052756721336,0.4419357759382396,0.4455567584478417,0.4455788677761905,0.4428714522268551,0.4211730997980876,0.3923100941963231,0.36553025760458735,0.3480787460128416,0.3697666794991433,0.4016470620726469,0.4216902444493118,0.4367525585049974,0.4436183729686765,0.4297058956755275,0.3967040586988855,0.35152457336610543,0.3021025422167012,0.2565747978567965,0.2060018839872704,0.16033043573335748,0.1076098119737372,0.05649786302189819,0.04057328686525885,0.07541809722517634,0.12815394750437625,0.1815520114140716,0.2316891499624083,0.2784091661524106,0.33155548173125315,0.38497409541674266,0.4383927091022344,0.4918113227877263,0.5450874658050144,0.5927607767649274,0.6418394620502621,0.6952129672055585,0.7486315808910502,0.8019077239083379,0.8495808420340756,0.8972550331774387,0.9051629598447148,0.8554815133932456,0.8050413079096141,0.758565695477109,0.7054867417005692,0.6532178318765569,0.6077384970832569,0.555585600555788,0.5072600076235307,0.4625126802784172,0.4179690849174165,0.3781971235571979,0.35261731197410096,0.3370977221571978,0.3170290376751104,0.2910080497277079,0.2676673879074638,0.2443890063588945,0.21504638214765115,0.18744469671935127,0.15528380099814745,0.12418031739892155,0.09806386313171456,0.08144186610065063,0.08538371480735263,0.1112081014135049,0.1443521114834576,0.1823490366683793,0.2202398473827334,0.2600238057668436,0.29788868517337064,0.33615640502630817,0.3733473886705108,0.4013939296235205,0.4115132979839829,0.4005905225519633,0.3862682012893386,0.3773421120874625,0.3742010656631427,0.3815799974865113,No
19,0.5568083649777728,0.5568091495841488,0.5575546927473988,0.5629448506071001,0.5543744472315358,0.5486136772888149,0.5566254455219503,0.5717095076858446,0.5860175203728538,0.5803197206843241,0.5491382694022625,0.5105404294726071,0.4641643503810325,0.4111593387752105,0.35760499586593786,0.3062206241483297,0.2588563162094476,0.20569001636581366,0.15212637193422773,0.09942402122090556,0.05279221727132388,0.02056578779279583,0.04839702708986193,0.0980157128236988,0.13934760813233538,0.18597163738129885,0.2335929067447909,0.28686456483191736,0.3404293338578398,0.3937569021936155,0.44176798694147795,0.4923599422339221,0.5458989334836862,0.5994636442501972,0.6526780417142949,0.7002272961470045,0.7513815061677865,0.8049333021354553,0.8584980937368988,0.9120005716319076,0.9532429571551941,0.9303864943469876,0.8793738909103611,0.8260404453758533,0.7779558289755001,0.7274531418708957,0.6745241477810476,0.6274986109320463,0.5778932706014345,0.5329031906389016,0.4904403529693481,0.4544169262547514,0.4210857163403333,0.3948960908349751,0.366323741072386,0.33552895887810663,0.2980370521279249,0.2607577815154737,0.2237656061430741,0.184597537717195,0.14283422083803565,0.10497695353493086,0.06544062433628961,0.029193711124629207,0.0,0.0074524962933915076,0.041742341716707536,0.08259152539878756,0.1265158554948388,0.17192305305691413,0.21815900266932664,0.2700119544462739,0.31696495876568875,0.3599356419179488,0.3928210495636165,0.4341268528196439,0.4756864953960411,0.512210492733877,0.5393996141215763,0.5591582579089026,0.565155717087581,0.5568713978333276,0.5468488645859181,0.5400355644391458,0.5438377119130143,0.5502725344642238,0.5612392265874345,0.5655898620998833,0.5687729399731752,0.5687399203618847,0.5737465606513753,0.5736503157678962,0.5644335192778643,0.5511140392940584,0.5408773838603947,0.5479853669345757,0.5677135700241008,0.5885637735110752,0.5948978204195344,0.5701483355241279,0.5235877227591094,0.4702050580933036,0.4166402664918597,0.3630754748904165,0.3095119380810861,0.2568687301528741,0.209942172798382,0.157603165696368,0.10421142542270924,0.059359662658309165,0.025950873494435037,0.02722788343951321,0.07312693004195714,0.12094825440166013,0.1742544141486545,0.2278187000156119,0.2807595809585618,0.3278595943079762,0.37972969293537984,0.4332887828004227,0.4867983818947202,0.5365203928286456,0.5853048150726546,0.6387583598507479,0.6923231514521916,0.7458782211017599,0.7973982316512299,0.8446994551959212,0.8977929294974846,0.9513502122917781,1.0,0.9890264660249908,0.9368882169711462,0.8881039670466139,0.8383828111221073,0.7856839029789592,0.7387358037628377,0.6865289028446248,0.632969279448678,0.5804598444314045,0.5357681488019378,0.4975477989555025,0.4624601589588394,0.43563383782536,0.407756877791332,0.3759316438589527,0.3425628978506482,0.3092236033397621,0.27363824931580705,0.23550345773743475,0.1971763752235204,0.15579922122635606,0.1121741148606955,0.07490836515722987,0.04255248723049143,0.032224757346177364,0.05539918060039961,0.0994026926056094,0.14198191351166745,0.1878275539219295,0.2338501342346043,0.27990457538674474,0.32589311852062897,0.37074817678739536,0.4153448756364629,0.4577944912103563,0.4964091102919482,0.5341812691607412,0.562323728833671,0.573168779427916,0.568658877147454,0.5594720350336465,0.5499537984424571,0.548081180154404,0.5518909259695525,0.5544654506173256,0.5512362964598295,0.5575788465280916,0.5645044673607159,0.5655280795823309,0.5612841111598953,0.5513572929440808,0.5495666902419295,0.561451360468597,0.5776146533403926,0.5941133755225029,0.5812106076813239,0.5393105888367863,0.4886538445410139,0.441023863746454,0.3877896613798114,0.3342321376269156,0.2825276277187617,0.23534144692283154,0.1823198311075084,0.12902861755884742,0.08145692351149891,0.04627981735766051,0.06954662495727193,0.1215186035945074,0.17450040882201534,0.22164637814290575,0.2734281627867087,0.32698645506636115,0.3805512466678039,0.4339625940648063,0.4824304985574154,0.5324936768324257,0.5860208237181279,0.6395856153195726,0.6931406849691398,0.7446606955186094,0.7919619190633028,0.8450553933648645,0.8986198987669528,0.9512105566353716,0.9672082521637604,0.9263229436976708,0.8744177797705815,0.8212063177601644,0.7736652089740413,0.7225240724269769,0.671722015815107,0.6243797047854028,0.5776113096278207,0.5321567330968503,0.4915058654687244,0.453947353717494,0.4270253096240618,0.4009978514874156,0.3708456994000274,0.3362343445953412,0.2992543150544104,0.2637365199137659,0.2254931945122721,0.18455008874335832,0.14528045915551624,0.10760233828446364,0.0687714979465458,0.038533332429492965,0.03680002130173754,0.0671698292950883,0.10496211206558426,0.140341389034221,0.18197664030381755,0.23002555981361994,0.27984362799772755,0.32590528047876666,0.3717775019170248,0.4157106508197396,0.4578113468685458,0.4974935832063593,0.5333666180816269,0.5614647651949772,0.5725352130300521,No
20,0.3278600882380205,0.3211614357359269,0.3225838619726824,0.3071340680850545,0.292972705803463,0.29854264659133944,0.31107196844908946,0.3165732142568174,0.31384460729732644,0.30901831220518305,0.31475943506011483,0.3094354836060371,0.3068665971972473,0.3043418279628378,0.2978098531623692,0.2885217948348924,0.282770031603365,0.27811106413328823,0.2821271252943216,0.29177799013104955,0.2992768764532949,0.3039628406129431,0.3063023901995385,0.3040070698767963,0.3005343613819378,0.2854009594992961,0.2666739053341167,0.24603379937806746,0.22059147948253632,0.18952735824432046,0.15881888599821206,0.1284260093614178,0.09834349987885327,0.0708780431141165,0.04258283427937948,0.01650385035723656,0.0,0.017529419850583542,0.047947240830155564,0.07638846433706936,0.10186704583910801,0.1256438126873607,0.15023591660200886,0.17349366079698214,0.19358531167380025,0.21461067092303446,0.23272781986798294,0.24816772888100425,0.2618985023179634,0.2741783150392265,0.28976419146488963,0.3129077940348928,0.3383734745733604,0.3693868533615972,0.40230090291525,0.4352715379996188,0.4713661665006723,0.5046165520157135,0.5431578415339546,0.57660398160825,0.6127054309840914,0.6516145535155149,0.6886709282518175,0.7213733829706765,0.7599196770166841,0.7982447845451845,0.8305985860130711,0.8682223148793924,0.906655296039616,0.9391660517700442,0.9763079218634191,1.0000000000000002,0.9824638263161248,0.9453160471079352,0.9121429518876918,0.8756973691178176,0.8367784420525373,0.7978500906727741,0.7589233825866215,0.7211663553465832,0.6888395901592528,0.6506206521105327,0.6116927180490317,0.5727643666692679,0.5338411123481992,0.496680922101785,0.4640414276350104,0.4255353234611705,0.3866069940455257,0.3476786426657623,0.30875029128599785,0.26997100327719914,0.236243465909993,0.20385817309023424,0.2079169024578096,0.24318706189893025,0.2755180457065485,0.31082638748544644,0.3352513793645786,0.342057259698106,0.3405555274689489,0.3326271812315931,0.33722191885216496,0.3387511980697249,0.3191670308207029,0.3046628482458731,0.3137168900999179,0.3265447687924499,0.332943053962921,0.3267829074141957,0.3251737232982732,0.3251696935792552,0.324483485741643,0.3178950507695075,0.3132564427089135,0.3077637049855977,0.3008571922510665,0.2937107560634342,0.29871397679608425,0.3083847560077102,0.3160314462028233,0.3166831593675583,0.3151778337188917,0.3075643843115141,0.2935500513161642,0.27328792145896785,0.250004186591557,0.22361202949469886,0.19115774680231712,0.1646192937807507,0.1365769148959206,0.10739469546152036,0.07864956618446127,0.05533039020578534,0.05092751907652526,0.07245981687754566,0.1006742899570805,0.12541212211623345,0.15095647754611585,0.1743046436412583,0.19554670743309832,0.21515944283827748,0.2389635402525727,0.25391215329060945,0.26820743994938545,0.2773784786420577,0.2881612661720627,0.3085516715338912,0.33199455649385445,0.3596212892712625,0.3888590061675119,0.4221771752975336,0.4576170476755508,0.49153680505245795,0.5294198913128652,0.5616925839390814,0.5996022757458654,0.633589416484778,0.6691193564619373,0.7079983692512819,0.7440846254100213,0.7737050865700537,0.8003301023164353,0.8381472407568784,0.8719539278699038,0.9076722898416348,0.9454698454860716,0.9651501066580892,0.9456876147516909,0.9143378948253396,0.8767030128157289,0.8377776148982305,0.7997041448980091,0.7674285516100434,0.7294752980846895,0.6905475836643791,0.6516192322846146,0.6127635923079522,0.578354906676239,0.5432823978374117,0.5043902110406362,0.4654618596608733,0.4265335082811093,0.3876051569013452,0.3486943752830274,0.31278631739781737,0.2791594539030484,0.2403761356573675,0.20144778427760368,0.16251961410182192,0.12501372221740506,0.12294309605297382,0.15878339054440893,0.191154335781232,0.2288555214532784,0.2612764216404613,0.2971566993935266,0.32834455063638845,0.3486017540235953,0.35035390655140897,0.3442836524278381,0.33811737511194706,0.340931849592808,0.3293737149020737,0.3109718858860602,0.31570514411096195,0.3248383910406132,0.3251601643309463,0.3229178517009714,0.3169652387938371,0.3165366226192752,0.3113366597163312,0.30678433283780016,0.3002364943584748,0.2958945056791902,0.28412621222128376,0.2819958363828794,0.2791333937412175,0.2842412792891864,0.29590378026360664,0.3033299813224684,0.3010122600659906,0.3031311361974469,0.295197970828772,0.277404669440658,0.2579399862090488,0.23724195642749146,0.20936370885414826,0.17767269522680795,0.14994040481901405,0.12084493669000927,0.10318330123090537,0.12345615365994787,0.14684904800514098,0.15842745407979586,0.14112459941390654,0.11331646151605335,0.08100815130592509,0.06736124925757325,0.07367772252147088,0.0582518103950902,0.051832717210113184,0.04959284039355971,0.02581507622257173,0.007094025966902785,0.023240575811034336,0.04842578836996658,0.0733021336764561,0.10139463461504628,0.12410952717111524,0.14773540553492134,0.1695129332330294,0.19350533965377206,0.2111885870491803,0.2275611088545149,No
21,0.2295131219504172,0.2423669482774176,0.2661129520932293,0.2945005124664213,0.32621637578428064,0.35999332750200885,0.3938575474273265,0.42897531653875604,0.4626524211066183,0.5001004471656907,0.5330022818740157,0.5691521197800681,0.6070194429947073,0.6437657748560546,0.6763306137547738,0.7136451782152278,0.7515220222825119,0.7890360784761732,0.8217951071968734,0.8581504159974802,0.8955639283698895,0.9282272309140622,0.9643883441245912,0.9940118757003678,0.9980379552231852,0.968779929294229,0.9311790853445591,0.8933017836100163,0.8557617520273333,0.8229084559059825,0.7866721006037776,0.7488009390365129,0.7109234434347396,0.6730459478329658,0.6351684522311918,0.5972909566294178,0.5594163393608351,0.5227201787863367,0.4901328082708143,0.4527899305030991,0.41491273941768414,0.3770352438159101,0.3391577581923044,0.3014125330235098,0.2677397134183268,0.23274711492506195,0.21208042572740915,0.2361488187163965,0.25979557105690554,0.27582266008201817,0.2737199478419665,0.26652198129776106,0.2521574244504112,0.2370365709024333,0.24069487232396905,0.2552297929628262,0.26401390245104106,0.2633704974437601,0.2581162411220961,0.2574207108695035,0.25265827795395435,0.2464348580474833,0.2413865028518225,0.23678243565284476,0.2366282612737665,0.2398713024755843,0.2471781755624189,0.2471052186565237,0.2432646034254502,0.2358186635840511,0.22047844714407486,0.1964915025115499,0.17106122261709664,0.1434266773393753,0.115021470615835,0.08660777039158796,0.05821871933803091,0.03103532487314653,0.007807457754071878,0.010570908370044927,0.03067271157085705,0.05537505977697232,0.08062537026145034,0.10549143102255963,0.1299799103712851,0.15186357417742768,0.1706060018431923,0.18651129446285108,0.2016559747149631,0.21533218350741912,0.2268734017738703,0.24185083928450626,0.2648171791819669,0.29688463971353674,0.3327714025838644,0.3656690161063609,0.4006410217353629,0.4342645659057085,0.4719033938823452,0.505773141052339,0.5407838267543361,0.5786268427944228,0.6159908497443576,0.6485994563264992,0.6852533275716626,0.7231219252271792,0.7594301270061001,0.7922308223247327,0.8297511913864779,0.8674610527472577,0.9008791706002068,0.9363806229502152,0.9721395327535118,0.9985602345744098,0.9951006583476534,0.9660752579780136,0.92870507363747,0.8908373035232671,0.8547815907237037,0.8218069786909261,0.7842044994696171,0.7463270822845054,0.7084495866827314,0.6705720910809576,0.6326945954791839,0.5948170998774105,0.5569396042756363,0.5190621086738625,0.4811846130720889,0.4433071174703156,0.405429621868542,0.3675522538190037,0.3300145354740782,0.2971674276824592,0.26092426849799866,0.22429930098078232,0.21344488003467488,0.2425943252769072,0.270349221329105,0.2777991028419424,0.27071332756539324,0.2575999309029302,0.23945626424846145,0.2280571417513524,0.2408448350827681,0.25359572262217056,0.26039719722599153,0.2618821685025068,0.25773811430275906,0.2569147310745026,0.2515521440938837,0.2500102380286948,0.2431010928664015,0.23692284665875385,0.2365934978278865,0.23799791845025894,0.24317944843800146,0.2435538769672312,0.23994949619759165,0.2291048970150331,0.21322240738355916,0.18822955662846308,0.16233923224087746,0.13456589637317884,0.10615427680334276,0.07763282912760394,0.04881265057181028,0.02287327286344032,0.0,0.0077235266768743704,0.029161497733624087,0.0524567392259222,0.07760242479770685,0.10284559426309303,0.12703082684936914,0.1507990471418652,0.1708450373447843,0.187580097406044,0.20523309805593293,0.21742355358047427,0.2298352653370377,0.24357149965952285,0.2658501438524594,0.2938594447523526,0.3254883521541829,0.360864769121479,0.3987054432437653,0.4342467316455885,0.4676372715309289,0.5053449519133524,0.5424642101091228,0.5749433254748986,0.6119705548962082,0.6498339515843923,0.6855578146997414,0.7187885989347118,0.7564699326496067,0.7943183997073142,0.8293621638552289,0.8632061441499008,0.9009360292869136,0.9357217342731968,0.9696928913959326,1.0,0.9980213784832476,0.9672295240807728,0.933156868565708,0.8958927935607595,0.8672488612653153,0.8346769988473159,0.8070698542575879,0.7733171107453716,0.7406142797186075,0.7031443556554546,0.6652670427128515,0.6273895471110771,0.5895120515093044,0.5516345559075301,0.51378473036011,0.4786062053549995,0.4448984367159219,0.4071338342975708,0.3692563386957963,0.3313788430940219,0.2935013474922492,0.2557340868693663,0.2308603570748695,0.25269957181009817,0.27452677434647305,0.27845152865766964,0.2714684734191257,0.2534237474465799,0.239004274448444,0.24550579226522415,0.25974580520275725,0.2645676731826689,0.2646259101597934,0.2644482339988221,0.2598857042115477,0.2560076460806937,0.2537764007731711,0.2494337091676151,0.2396455756437532,0.2366187317645243,0.23795851283567135,0.2431643825659953,0.243587002222573,0.24165480876389656,0.23363817944403364,0.21736308313175146,0.19690890427860053,0.17216711498742132,0.14690347122569158,0.12045852879376515,0.09570573119161807,No
22,0.1984305749197457,0.21806270155828056,0.23814602679773555,0.21470634335514813,0.18247483257643785,0.1486227030303482,0.11414908312335025,0.07965049604706352,0.04559018898067968,0.017190580167607106,0.007579486786215339,0.0243830908036472,0.0531224683185505,0.08145511692649876,0.1208095501482902,0.1612612539968643,0.20614510585842005,0.2484582512308704,0.2887775000304729,0.3286978022106031,0.3674041447689973,0.4035476677339485,0.43268814969042013,0.44627322103979,0.44094843596369504,0.4391581479885449,0.4374106903213426,0.4411555521409771,0.4473245893199101,0.4481390855366771,0.4495850994017057,0.44645185027905776,0.4467683829913156,0.44804872534349016,0.4434440031571321,0.4258177129224328,0.41603328215696256,0.4192443909107349,0.4394520807972964,0.460990268975819,0.4567100186157995,0.4348605371272736,0.3949804076627008,0.35125713199808195,0.30301183317325764,0.25464952248217365,0.20832870390339964,0.1663250136569452,0.1336671074715272,0.14443764850782426,0.18488509822051455,0.2300135125371583,0.2783491524754309,0.3265983637339209,0.3704188212201565,0.415404469539989,0.4637324211744294,0.5120931574397831,0.5583678880624554,0.6011027283639679,0.6491153252246924,0.6969059738524697,0.7392944442355152,0.7861297181334796,0.83341214260988,0.8756457734810392,0.9231396044754568,0.9709490657887678,0.9902667496988892,0.9499345587282416,0.907190031336084,0.8609616065712418,0.8129151808992974,0.7700852089549624,0.723949152699721,0.6755899334575686,0.6272180262126048,0.5789469597721733,0.5349623095388378,0.4904190117699128,0.4510312075107097,0.41988577884201295,0.38224015330782457,0.3473581950202005,0.3188322618969053,0.2974090650646868,0.2728473840375805,0.2452375168574461,0.21589366938010635,0.18580750735570614,0.15240259060135353,0.1160004265904806,0.07814831853638471,0.04484913846071381,0.02034799775944696,0.014711830639584587,0.03804138628880116,0.07397197748756734,0.11432417403981797,0.15285736973583686,0.19365229944487686,0.23473159352449424,0.2745494427507644,0.31329841926846513,0.3530297856162405,0.3901769854104056,0.4212310262686592,0.4375664978686904,0.4336251886176379,0.42521593425776905,0.42395205833491056,0.4301940096672754,0.4393983687356833,0.4400068938980517,0.44002075023923815,0.4420954349065138,0.4402250042321199,0.4240061963748592,0.41929723986912093,0.4244851241970786,0.43971855110252345,0.4581047106838736,0.4566352701861445,0.4339767000385777,0.3921014168795682,0.3482532126300881,0.30573833936954103,0.2594371861487337,0.2159228602418939,0.17100712733743095,0.13255399668351253,0.1321663748277757,0.17058040213046646,0.21723887344875115,0.2656046486612851,0.31397018883344274,0.3606840549529775,0.4031176450522207,0.4509881840824501,0.4993596612842561,0.5473464450077967,0.5899588967778715,0.6363750611584151,0.6832961672970608,0.7254265104657964,0.7654350944611277,0.8047905328911935,0.8401919520790537,0.8786512720491537,0.9263489855042472,0.9744351918484692,1.0,0.9653951129797322,0.9221391398295596,0.8739937845428019,0.8283268774963624,0.7851081464972822,0.7369607405177714,0.6889989554936493,0.6463724595631295,0.5999974446459426,0.5552940688426402,0.5115775714997786,0.4690208207493898,0.4263055171591297,0.385988592283389,0.34855878205584445,0.3203743710160516,0.2961892118580012,0.2740797606333738,0.2457515061852347,0.21505980875652608,0.1839378305733104,0.15004188556514994,0.11387723711132525,0.07888042634968206,0.04442600457175494,0.014590173770795968,0.0,0.013988010907164394,0.045523347091463766,0.08071018897132465,0.1204693924732112,0.16408805671147375,0.20902170201342374,0.2494674526811913,0.2897790473933335,0.3298557391234731,0.3667773958769871,0.4015573418421241,0.42559647800228495,0.4343893814819901,0.4261645796752596,0.4171081621471915,0.42118143565569804,0.4284066017617783,0.4382206924218095,0.44092100512230137,0.4436956683621802,0.44376150574618706,0.43974129300818543,0.4229540388220021,0.4139008307919083,0.4236503039483903,0.4354402352461013,0.4557441652426808,0.4677413171918905,0.4562091069095053,0.4230931905387718,0.3773643662343336,0.3290096324943108,0.2811553489497129,0.2387561119437116,0.1920704816875467,0.14778166164877748,0.10590011507431818,0.0903242341581756,0.12335172624514155,0.1712719394678497,0.2164896234678193,0.26010119407909515,0.3083193946122245,0.35669130185718845,0.4050610168095339,0.4523618383561734,0.4945931743360723,0.5420758252864291,0.590365395881854,0.6347320868843915,0.6791563570158421,0.7265145257916301,0.7687238308154283,0.8160988399597249,0.8644692007092205,0.9127799325850848,0.9570063059863959,0.97513109651394,0.9355687682586912,0.8872249731056696,0.8388530658607052,0.7904814599932242,0.7426459327781969,0.7002863339567049,0.6534646099958363,0.6053139665192169,0.5621428117656051,0.5169227400749146,0.4746815707092591,0.4331863494850777,0.3920292331148547,0.3572555061183651,0.32822306874410145,0.30514131301842284,0.281175114475096,0.25643290536650576,No
23,0.400640504129101,0.4038203879281681,0.3980702549553621,0.3845345814789807,0.3636956360469574,0.3409857606436655,0.3086137076922089,0.2759377408556689,0.2390204834832914,0.19881188880606812,0.1611377303025796,0.126463032780453,0.09271799514194544,0.06565343707996774,0.03727038248648862,0.03673477891160482,0.06597566220677488,0.09656329999314496,0.12747394246965427,0.15355932845965614,0.1797787474266801,0.21088181875134704,0.2322197058303479,0.253981340226497,0.2759215175741552,0.2919225096349851,0.3018375356766121,0.3208602591053153,0.35158493433696125,0.3903159116034785,0.4295890277258396,0.4751969994570822,0.5171773872277983,0.5598881883944469,0.6072098303497746,0.6575662992263227,0.6985726971237145,0.7493465840938522,0.8012371862838858,0.8481005145999899,0.8916494157113395,0.9433650745427063,0.9870773905339358,0.9999999999999998,0.9716830687214284,0.9299358766242384,0.878372152603869,0.826468309598994,0.7787873490945445,0.7359499391623634,0.6842989624201776,0.6323789079398152,0.5804603885186651,0.5303955648155471,0.4891752190008088,0.43830543708609615,0.38638563851075935,0.334467652484572,0.2865666788530248,0.2906646881774331,0.332307305227624,0.37071798211284457,0.3894662034641729,0.3906069248125943,0.40044446312616544,0.41277801060118535,0.4074967884390859,0.4038937086331986,0.4038879795894272,0.40417920236157134,0.4134509068195016,0.4174800790389719,0.4174949825621763,0.4174949825621741,0.4174935439929486,0.4157328549846382,0.4050046199300319,0.40388225806224504,0.4013097717860321,0.3901960886025544,0.37917558695920106,0.3768972560764008,0.38432662161769904,0.3828141454891101,0.3941586673960573,0.4035761364340906,0.40217308343194014,0.3910422843237365,0.3762453539626798,0.3450060289051191,0.3170590080327249,0.2829285985662724,0.2482833095913388,0.21342017539901306,0.17461995908958827,0.1310135020953218,0.09172242686733713,0.054584558985611764,0.022636185190765268,0.0,0.008164441029697045,0.03713298527644904,0.06963787987062209,0.1063872329041604,0.13552483814396532,0.16638867689717984,0.19413617312343034,0.2200597555058399,0.2420761778551117,0.2650629777714795,0.28268790013393663,0.29573169081381745,0.31144487887885064,0.3350833483953022,0.3649751526643701,0.4046758870443321,0.4542963743721742,0.4952532798317797,0.5394985156489278,0.5846058474375206,0.6362753781373491,0.6790241345337671,0.7072290778849146,0.751431668459382,0.8032565676227044,0.8495792513827125,0.8936570742951877,0.9450465006757812,0.9826321119474816,0.9960146926063028,0.9693708561446808,0.9279574083847052,0.8763444671218659,0.8244434676529646,0.7772317440158549,0.7339717295795227,0.6822712521731715,0.6303511976928101,0.5784311432124467,0.5266379024511492,0.4824625699993146,0.4362394786575312,0.3844106003352288,0.3385776222448793,0.3243452632809249,0.3625580780001572,0.39453052219824136,0.4127276471976733,0.4175813130466477,0.4251051309372509,0.4225994055753109,0.4175247193770868,0.4174205152584161,0.4099694538982883,0.392334062647546,0.4009011981796979,0.40392216054312136,0.4098979335465607,0.4173781623424373,0.41749498256209017,0.4174949825620875,0.4174949182418708,0.41701047664659785,0.4068129804479794,0.3930134065390616,0.3782890726647923,0.3767268359347835,0.3832657307137188,0.3929702476198929,0.40328828731525707,0.4038876797550548,0.4031799422449007,0.38782072415878255,0.3647188142728226,0.33557972262324953,0.3053734605441269,0.270789446718817,0.2362398161769301,0.20160894590020265,0.16696228860305307,0.13211191470826233,0.0933533721313784,0.05449498202015901,0.021822628031795018,0.022002402861832197,0.043948625177274485,0.07655064799309175,0.1073545105732776,0.1389984249976013,0.17467586520248554,0.20639364476856525,0.23700466672502676,0.25951488451008875,0.28782497415206376,0.3061641863156732,0.3215158485210325,0.3346157336856932,0.3523099056694805,0.3781797509074452,0.4088190099772502,0.4487829224067064,0.4887460304836149,0.5282054973676928,0.5763640242343551,0.6173500875700191,0.6681847513916155,0.7201040565169594,0.7720241109973209,0.8239441407126817,0.8755078647330505,0.9175957941143701,0.9628504714770071,0.9855542587592908,0.9663914461878308,0.924239823091898,0.8802649827303128,0.8284798331352599,0.7765598147705253,0.7249313405063591,0.6821658424603176,0.6343926624604668,0.5824865637062031,0.5305665092258398,0.4787085737052082,0.4328209955893832,0.3883322847658117,0.3385688287839945,0.30813100778363034,0.3293183897805816,0.3710258016112021,0.3991630530740789,0.4164053078487069,0.4174942178067285,0.4170622627452076,0.4074186824998083,0.40388985018618384,0.4015647823338189,0.3913086146275357,0.39995587920106623,0.4038737554004917,0.4038437437337301,0.39827850249899854,0.3903907466729051,0.38573514177482937,0.36959370662283786,0.35654356413668675,0.3495150697530203,0.3471840895722329,0.3369047850264197,0.3464536604585995,0.3611413732694133,0.36306538047461534,0.3630668864011624,0.3624461128741536,0.3521896625126069,No
