,0,1,2,3,4,5,6,7,8,9,10,11,12,13,14,15,16,17,18,19,20,21,22,23,24,25,26,27,28,29,30,31,32,33,34,35,36,37,38,39,40,41,42,43,44,45,46,47,48,49,50,51,52,53,54,55,56,57,58,59,60,61,62,63,64,65,66,67,68,69,70,71,72,73,74,75,76,77,78,79,80,81,82,83,84,85,86,87,88,89,90,91,92,93,94,95,96,97,98,99,100,101,102,103,104,105,106,107,108,109,110,111,112,113,114,115,116,117,118,119,120,121,122,123,124,125,126,127,128,129,130,131,132,133,134,135,136,137,138,139,140,141,142,143,144,145,146,147,148,149,150,151,152,153,154,155,156,157,158,159,160,161,162,163,164,165,166,167,168,169,170,171,172,173,174,175,176,177,178,179,180,181,182,183,184,185,186,187,188,189,190,191,192,193,194,195,196,197,198,199,200,201,202,203,204,205,206,207,208,209,210,211,212,213,214,215,216,217,218,219,220,221,222,223,224,225,226,227,228,229,230,231,232,233,234,235,236,237,238,239,240,241,242,243,244,245,246,247,248,249,250,251,252,253,254,Target
0,0.5107793319451588,0.5626353807538145,0.6290789185629968,0.6715366215298069,0.7333897392410487,0.7881140724450573,0.8270544180203727,0.840464096327636,0.8326735277137891,0.8277939049756853,0.8158392820115903,0.8223146046691092,0.8379423040416485,0.8178007881993149,0.7999070101447974,0.8055071910268257,0.8452224024390929,0.8643636220076611,0.8527194406134988,0.7803331244810676,0.6944221989500508,0.6064673686193941,0.5210410732365891,0.4294367608487484,0.34410865393370016,0.2559501958680792,0.16889694502102293,0.0841412968310653,0.019130225296535297,0.04766022904073841,0.13555153300658376,0.2277476812213173,0.3165402909039729,0.4014474458949837,0.493246057346812,0.5854912365277423,0.6777349574420137,0.768831155888249,0.8389080045200509,0.8726921270074792,0.8790373627147907,0.8557430095670495,0.8251079258910237,0.7762972430399153,0.7270473113680833,0.6820759450205032,0.6560017739688004,0.6852917763251329,0.7389572442564287,0.7890516378625319,0.8240393091454992,0.8283397841278255,0.8236975663082111,0.8091469347196856,0.8008600316634458,0.8077286215575048,0.8040113974654581,0.7841758449853129,0.7858334605088844,0.8224863782520699,0.859419810684779,0.8697670970310274,0.8329131081165313,0.7510646169214441,0.6624836466158446,0.5779563019312732,0.488005567319304,0.4126975979290535,0.3351283689833402,0.2485373115386633,0.1623631113504751,0.0763813088562928,0.02392464924762949,0.07899186792403977,0.1662594825575643,0.2518434359184669,0.34380602873250377,0.4360511802539928,0.5278499172673095,0.6127035472077793,0.7015476670278579,0.7928008030814695,0.8510792255441983,0.8625631540337799,0.8555683298392327,0.8318938660059187,0.7937735970545166,0.7467440561199103,0.7005073300656195,0.6611094415293359,0.6694631794533952,0.7222138787262415,0.7756326722358904,0.8212383749148922,0.8413582050398896,0.841600572021798,0.8343911748456563,0.8273993772326911,0.8334827186627001,0.8248881387979272,0.8015926773800157,0.8113375911524761,0.8506807950651012,0.8769239379941864,0.8670192423674503,0.7955596732305632,0.7081724739820576,0.6239004909366588,0.536953478736407,0.4666187225387493,0.38348198490764296,0.2924988067698888,0.2085531623025203,0.11898482036441105,0.036852677675450085,0.0,0.06613288105154735,0.15063344092903752,0.2394815687932337,0.33169524838586906,0.423940498691074,0.5161857489962801,0.6084309993014854,0.7006741182621796,0.7901897977002084,0.8361605250328461,0.8584611190079201,0.8625631953232369,0.8437542926680939,0.8037467406571221,0.7533068583263054,0.7023640300682277,0.6623172768980171,0.665644455256647,0.7157479706463148,0.7735640370097387,0.8123756753824458,0.8421561072283414,0.8436686462680512,0.8043222613611134,0.7509690961670235,0.7055137253916981,0.7196481677232223,0.7687213154145816,0.8172444731093329,0.8630438361833829,0.8876189037076119,0.8982684682174678,0.8970847614582422,0.9227867932835564,0.9663341701033464,0.9163227118882598,0.8261550487310556,0.7376882779832725,0.6525356864868082,0.5606508768386509,0.4684062674049629,0.37851732630244217,0.35583115144731803,0.437023588620572,0.5222630795689931,0.6103712989177523,0.6962392080967128,0.7833158672517164,0.8674670666789719,0.9371316614887264,0.9341415806697221,0.910204179423206,0.8963844873869882,0.8546857829643744,0.8400493030868508,0.8606032266585644,0.8656433122987492,0.8591177364757139,0.8676291108615017,0.8780155429733945,0.8748434317366538,0.8579193751652991,0.8149472557337667,0.7599599146043816,0.7080685449661868,0.7122396154094219,0.7599541735733624,0.8049958792329861,0.8483061563123713,0.8771792019127516,0.8965129103021969,0.9068103886086478,0.9527606386304176,0.9896503055273732,0.9270200960886203,0.8352732400037659,0.7450324329914211,0.6610367772176469,0.5703444059941505,0.5123430840234091,0.5709789520754649,0.6611436984777972,0.7450197110613421,0.833158984513225,0.9127208607349506,0.9464525775499908,0.9075329495233933,0.8962403091651763,0.8688449743054631,0.8292579204616666,0.8251449940031719,0.8432694674511148,0.8436825967086008,0.8414275336787003,0.8553233768475554,0.8648816534873183,0.8601406688366333,0.8422479791744346,0.8015943030939925,0.7450401892565863,0.7023339585937958,0.7202466876957945,0.7682760478272104,0.8184923262811439,0.8624285645930845,0.8898540676432225,0.9104679419387978,0.9122572499504432,0.94733173841984,1.0,0.9625714164342808,0.8731838666718275,0.780943319349791,0.6886980690445847,0.5964765751000245,0.5091793956638953,0.4884638301149484,0.568284927741677,0.6538752479227979,0.7407595697530149,0.8242871570560124,0.9042597544501824,0.9455900864587976,0.913474809769352,0.8974869338039397,0.8647793309673921,0.8301061912085059,0.8410015787803198,0.8652059915720935,0.8640668842956116,0.8492563784936911,0.8549489331287468,0.8613799657402799,0.8755139648766666,0.8687626100903658,0.8474496023336241,0.8056892906729449,0.7517614449681964,0.7021016597490062,No
1,0.7892316794578961,0.8464505510654441,0.8753722501959181,0.8845368909815524,0.8955909557539238,0.9093524362243128,0.9138501733077792,0.9193939540359354,0.9107624810961116,0.8888706497010258,0.908891169331803,0.9409388662851568,0.9383952716402394,0.8730131122138779,0.7861217781287799,0.6942889871504211,0.6081716004210339,0.5285197461720078,0.4433473166444831,0.3516519827683521,0.25688335254174144,0.16776639347664968,0.07643431725264871,0.0,0.023236809134441042,0.10993119315938572,0.18873364942703896,0.2725846754462994,0.3670511530090152,0.4605011017765849,0.5484320087295511,0.6425330356711833,0.7365655452180532,0.8242593764777769,0.8952922819621361,0.8757733839906869,0.8430972511617515,0.8103163389192373,0.7632142500654614,0.7020278903770552,0.6383654322993076,0.5726677578766263,0.5008468488655374,0.4494704089829621,0.4687092642665128,0.5382839129919079,0.6126774122352617,0.6886428184074144,0.7597908575993381,0.8251644648712876,0.8524497337791349,0.8563793603367763,0.8690032687719637,0.8888989558759396,0.8999088072538658,0.9128557269736356,0.9200877871418466,0.9072260416067338,0.9077179360527472,0.9453157161070654,0.9626043112576598,0.9136025059258988,0.8291309870341587,0.736718863891403,0.6464445122673598,0.5561261780067016,0.4620375654662831,0.3740507957364184,0.2809091951946595,0.19068747827207236,0.10061043805424208,0.01893487583819542,0.009488123855054377,0.07849519412692807,0.17239145789407107,0.2675127593684593,0.3626354403843636,0.4577398576145862,0.5504370560420383,0.6387244277581802,0.7328635599051713,0.8216835134874366,0.9002241577249875,0.8990122987924415,0.8665018042097291,0.8332363291732102,0.78789705950438,0.7328240689065638,0.6638716663855738,0.5967655132146121,0.5329830266085177,0.4901678180994359,0.5148468571882342,0.5709593066846627,0.6459648133286849,0.7222212429599771,0.7926569373386846,0.8498355707035697,0.8721682045339115,0.8670432531272126,0.8746141425759498,0.8900647384388317,0.8961028003530284,0.9015736483759514,0.8846819085183698,0.8627134496510013,0.8858784091201819,0.92325367226421,0.9096127678322136,0.8338699721278445,0.7587366432447823,0.6724650102528896,0.5845193935164873,0.4916248785347687,0.4019744579470311,0.3109990282337872,0.21648955485236165,0.12806530612029665,0.04124917709328302,0.024125428359388582,0.099018147028608,0.1914970486227271,0.28252424844976354,0.3721200581684426,0.4669597065959635,0.5581369826639634,0.6476167006744141,0.7423861392008287,0.8326089715755144,0.8984886585689228,0.874610505383674,0.8386534107788218,0.8043058580930583,0.7587268979169927,0.6977422363696705,0.6327814280940752,0.5647691949667674,0.5194573783183308,0.5618053395999055,0.6318782390555734,0.696130079023051,0.7565847670231591,0.8109976686982724,0.8488494465394508,0.8823114204729449,0.9293740630993058,0.9868252977406016,0.9670768307620478,0.8848113443177054,0.7961174260148355,0.7033333429053509,0.6152825939965466,0.5227731747268068,0.4904964051320079,0.5702747840989685,0.6589960323065492,0.7505495596239041,0.8389335913825485,0.9219309731094449,0.9634342381131266,0.9514826055732888,0.9147503884275582,0.9099530664201386,0.9311483307046651,0.9348715448493992,0.9251828764458953,0.913486527794074,0.9013510919028196,0.8978162275865368,0.8927057714759189,0.8587240168990357,0.7967313873588148,0.7199234992768763,0.6437138037199087,0.5703383141179176,0.5315388131061073,0.5791851460079386,0.6455018725778671,0.7121053533449487,0.7759533698374995,0.8288058107153241,0.8676569641398962,0.9001691408006064,0.9400331233397567,0.9935557989919576,0.9789912082830964,0.9062380517349664,0.8210466354545295,0.727147381210154,0.6354824043285335,0.5464290051958289,0.4546835892067483,0.4357755012983789,0.5142355840264469,0.6064924114128102,0.6986926819859526,0.7871805627452816,0.8769304073415155,0.9587882712750614,1.0,0.9861505143157546,0.9541453333400896,0.939467366236881,0.9491353923522052,0.9453535014430092,0.9329853069192798,0.9190036403766858,0.9041303482823752,0.8875453254671671,0.8825172902956565,0.8770358881643309,0.8473346041432551,0.7875110764214536,0.717164743790495,0.6423831823071623,0.5634544128229136,0.4975338288586616,0.510497937751388,0.5783541678539176,0.6492249692223019,0.7131038323775513,0.7720091332750204,0.8241004578842405,0.8604003423118264,0.8851788454694999,0.9295940372678634,0.9874708101811596,0.9643581512951664,0.8803285945337892,0.7927130186593955,0.6989009554132671,0.6079519962805978,0.5182681627929281,0.4233722230005673,0.3379245392068381,0.3548885162953658,0.44682029677601703,0.54193937057987,0.6361925457486187,0.7242072295650422,0.8164677113299131,0.9028976385973982,0.970225876689496,0.9826769805803104,0.9628849876309052,0.9258647900031888,0.9282847868720226,0.9460331991136948,0.9472741592689026,0.94639382699395,0.9365361565846548,0.9208686477613672,0.9103201426999162,0.9054357484705758,0.8769420091309738,No
2,0.31972989064310875,0.2982003676784513,0.2561286433466514,0.23343751434694804,0.21169202071387794,0.18418034044872034,0.1414648067697728,0.09576206986637592,0.07080126801383102,0.10975242448260092,0.17672097313372606,0.25323920836836106,0.2970227128551026,0.29528281611639473,0.299095322541874,0.2866837198506045,0.29853638666081883,0.2918970581525353,0.29558719589048144,0.3075401180799342,0.27808334755075714,0.20544152009331815,0.13502928185703622,0.14230278323463266,0.1959880227021462,0.2386801953642261,0.29555138011501597,0.29770653077177256,0.3166870276870779,0.2977112074906807,0.2989551166761566,0.2749440689398921,0.3049338005159332,0.40036240850642857,0.5310179981133589,0.6474334271224866,0.6236613007805754,0.4822669113613567,0.3470888177700613,0.20958802305248936,0.1123005859264934,0.16428329855909451,0.2821685129659355,0.2657602594533057,0.2085253937106661,0.1811551273825338,0.1537043411780501,0.1228337355416822,0.07962928831356209,0.02468904539050953,0.0,0.03058138524047305,0.08833667698977044,0.15430047560314808,0.23391864223241446,0.28419563216868626,0.29449613194196234,0.2892808391114277,0.30629852078547914,0.3087436704873601,0.3087467620997386,0.30865742170404564,0.30085291390207697,0.2736371911003759,0.20327958987318076,0.13797753890328135,0.1465368444420223,0.21560792698325887,0.2582335653827648,0.3164569376288457,0.3500393209880799,0.3366446821172242,0.336374486407522,0.3345648550542495,0.3269431291873359,0.3892762676871979,0.5091819979627972,0.6414893380051283,0.7366232078721082,0.6532143698825617,0.5077015143173713,0.3771270506353957,0.23516255472399594,0.15790394521059392,0.2389073784242073,0.32620507111265384,0.2772850723204097,0.2293518839160158,0.20109368953574247,0.1916127443612288,0.16288667365282405,0.12610077135199127,0.07079085994700972,0.04531547898535226,0.08588191958474045,0.139331961966362,0.2154492984415577,0.28759058045823904,0.2975081557071921,0.33275891434790816,0.3208320681498589,0.3172904770714857,0.3175517229916607,0.3311535462617932,0.32756570402808594,0.3172995845497133,0.2965708336075292,0.2265065090554361,0.15709088534437088,0.15001853271910948,0.19424756633109694,0.26694073424547904,0.3225621116950843,0.3282699318417284,0.33581381533869203,0.3173929404343601,0.31514245044795386,0.2937608691516913,0.3232543198607316,0.4126973423974234,0.5381376029375278,0.6710875891614481,0.7252210574475728,0.6069594093538755,0.4763987565850721,0.3318252556567418,0.20284413278387128,0.11260786945293333,0.1835997004622003,0.3173327164095228,0.4538869549653,0.5903120492060999,0.7273359095515493,0.8628676197069427,0.9646048641268536,0.9404482225711156,0.8238438200891056,0.6958201127088741,0.560869631299187,0.4386170934164873,0.3977947324664668,0.4155314678778805,0.4306062532055992,0.43286651447975855,0.4212628368753282,0.3616462204613984,0.3119380512614156,0.27364444740631155,0.2844793048106742,0.3577609793065899,0.40360788042897466,0.4018316384659406,0.41578646357298377,0.4332738362390267,0.4230349911086795,0.4306146084329847,0.4331299249394705,0.418848624683656,0.3990412194254289,0.3525849841789301,0.2675465746488981,0.1962183977233392,0.13888567730704082,0.12887517366372325,0.18235936146968695,0.22110304751182894,0.2606894123661365,0.27566001193349393,0.2900182798036464,0.3307929148273279,0.4006751632822989,0.4869054142634606,0.5453457848342746,0.6156439196804429,0.74545103332721,0.8767112133283148,0.9999999999999996,0.9862345510171076,0.885597538303466,0.7592046236777921,0.6264507473578242,0.4912671008542256,0.4099347236729751,0.4156784397161864,0.4086015473866129,0.41530554351904797,0.4143839252389614,0.3747725223168694,0.31571542944337905,0.2708995644938725,0.24282094916878935,0.3056666474472736,0.36733820588887545,0.3763889049091449,0.39013012694459137,0.3915534323059817,0.378475233068222,0.3870179691019389,0.3725735386545384,0.3739736451561204,0.3648569570960718,0.32907245689555475,0.2622049553715171,0.18624526709614608,0.12124496196218848,0.0813473167495915,0.11637360776665373,0.16701794633687728,0.20074058209349088,0.2303123595156369,0.2562279392655857,0.3017235705630763,0.3775075234549719,0.4569011522358788,0.5078815513949766,0.5796047471635313,0.7224976985997479,0.8517341299045715,0.9439523299540508,0.8907379470481742,0.7692051515429177,0.6410467353516709,0.5099401264814349,0.3940962235185226,0.37031142764516334,0.3835437452716373,0.386751136350536,0.3949319412328181,0.40704170918695626,0.3756257274583681,0.31445630121657203,0.2592587933372488,0.2379697636456464,0.3148916740242611,0.3636072381599687,0.3850890547770445,0.39172142026703627,0.3869428177085443,0.3834012709843981,0.37944007212760456,0.39188584470098187,0.3885486000169682,0.3594001696094753,0.3111608206976189,0.23552898638001585,0.17013710652044045,0.16620624163937234,0.20763307799266428,0.2581838139562751,0.286992514565259,0.3047423997937302,0.3256585824096363,0.3611894069094865,0.4519462089155222,0.5433728171828327,No
3,0.7939674336559918,0.7734974747262492,0.7804528749154164,0.8111259655616391,0.8371229666841983,0.8391206661431071,0.8387866604324882,0.8444997645102738,0.8531928084174615,0.8367606282985479,0.8349422047761977,0.8658482227582583,0.8886950875141416,0.887496756103383,0.829695516270332,0.7556335391712604,0.6804551368844493,0.6070389513968871,0.5286500393332315,0.4500260503516834,0.37140202813145,0.2927843073353614,0.21568634368327425,0.14350331220236498,0.06597187927568005,0.0,0.004634513035180921,0.07034799515518042,0.14709859443195972,0.2256024098650472,0.2999708474336432,0.3742502398326501,0.452759823646213,0.5310970830120868,0.6042264013439597,0.6798435017321237,0.7577207464570433,0.8300151672446804,0.9030398390730656,0.9244359815806186,0.8955234141304028,0.8671852045590726,0.8421506406875621,0.8129657775157658,0.777213580876832,0.7618320176161929,0.7823741059981927,0.8144311313109959,0.8288252620919322,0.8262311287915084,0.8290829653808561,0.8400393422885479,0.8449225414721865,0.8301889276888846,0.8181973034832369,0.8402243606855838,0.868932330353058,0.872893513107656,0.8174012542420611,0.7456399405349329,0.668292848808718,0.5952573521246137,0.5195154020069813,0.4410045918905162,0.3662567482822635,0.29234781582130964,0.21387941726247814,0.13626009209208878,0.06445133768780298,0.007497491227316687,0.03648637544421729,0.10737159297429756,0.18271098350882764,0.261286870250821,0.3399108924710542,0.41853491469128745,0.4970978379383338,0.5703002014245407,0.6367450703711001,0.708214520520026,0.784748418878256,0.8572696889321226,0.9144891203427626,0.8964161855365113,0.8695817433896021,0.8464579313662456,0.8211920024332066,0.7868724493796914,0.7638998854187066,0.7712304019994681,0.8050173647837942,0.8350728582172927,0.8408780603128113,0.8397408388203734,0.8471512907406472,0.8484537062389147,0.8365891013366044,0.8146555462971287,0.8143064234021608,0.8420728543699577,0.8638852449104041,0.8513981242058769,0.7882617105486679,0.7137101453086981,0.6408470122327369,0.5634439951364333,0.4912319919805487,0.4141677159876523,0.3355580967778903,0.2585529962319264,0.18633713949169195,0.10853422386414867,0.03569528213509121,0.024874055769236736,0.08828509933387485,0.16595969738052874,0.24013025141275054,0.3146099470874361,0.3931324436476179,0.4708637686656391,0.5430386362968659,0.620186327421072,0.6980209756323096,0.7702389824810368,0.8460653443261464,0.9078852880631028,0.9020016066007688,0.8753876664937018,0.8509710389329305,0.8261560817747625,0.7926890009862091,0.7690048326861955,0.7690315225833168,0.7993209982691808,0.8233485537871342,0.8249626478876325,0.8222369011003882,0.8327172361561127,0.8537069771532243,0.8518996333326648,0.8533436069521897,0.8532155952394705,0.8291576143879499,0.7993423309764819,0.8024863780319987,0.8318890599484227,0.860733991777937,0.8868636858877741,0.9089198787242802,0.947555097344976,0.9619486334624032,0.9096987099506972,0.838810472863872,0.766998286961801,0.6898375709571475,0.6112191381605999,0.5325951159403679,0.4539711331971646,0.3762714894102565,0.3413143254418034,0.40391734874620544,0.4822818424574097,0.5560985261518206,0.6309451441985153,0.708376439508695,0.7804270965250659,0.8538794554482426,0.9148915764000974,0.9190472037219604,0.8949223515763572,0.8711450773931763,0.8421235160306172,0.8488071139650941,0.8677311270790283,0.8749912918764432,0.8683191427098501,0.8615493618924966,0.8666554224129074,0.8574351106344281,0.8257807016667066,0.7933081890374994,0.7958295898213893,0.8279707059027154,0.8581713028823984,0.8824967218071148,0.9074355995218532,0.9463950914737096,0.98661969954897,0.9607306995134722,0.8885610578827073,0.8153077362165918,0.7380520258096327,0.666010599689613,0.5949116375339997,0.5318781651914583,0.4778086616975034,0.4928692804070714,0.5685151331238075,0.6460508744840793,0.7181332676364826,0.7926775064450008,0.8641502042628907,0.9253660308818544,0.9224133893378488,0.8986192955412137,0.8771165218063589,0.8508829951957231,0.8581743520950137,0.8732309396544947,0.8662612660952375,0.8575866687951058,0.8524483355836961,0.8572871751687988,0.8465227014060551,0.8186420152192561,0.7888361830970437,0.8012716220317982,0.8380023507501962,0.8677647246519217,0.8941256656346536,0.9211296684683298,0.9563087217000484,1.0,0.9861181274365826,0.9210899164212036,0.849008556833912,0.7735813812658477,0.6960073175755249,0.6253205951145561,0.5605536868203541,0.4855824579526021,0.41068533785617467,0.4050738832526889,0.4751983526334333,0.5482113874855757,0.6265031204641404,0.7031630942822967,0.7755384199545702,0.850999437193008,0.9212397650366048,0.9517914426399728,0.9238951213025604,0.905337478626901,0.8765772133809985,0.8575182665893343,0.8800428095360665,0.8838326375047431,0.8709952343091537,0.8613232085639309,0.8648921495417142,0.8635515741903498,0.8395061334399528,0.8054859360732304,0.8018279540186012,0.8266181982449842,No
4,0.36882057522871,0.4059233696565444,0.4615294044665131,0.4957806660190099,0.5007848937895235,0.4558733138544112,0.4039281163674414,0.37317650716608297,0.3803509233093633,0.4172890710952687,0.4566531714473309,0.5080235787671455,0.5408539838405176,0.5470676138127871,0.4971392450478721,0.4259353431079543,0.35610733587207244,0.28664187900856464,0.2149386200638509,0.14683905807319966,0.09977722975169,0.12993754797476895,0.20017809116205976,0.2700523767588557,0.3430001126809338,0.4129471313528358,0.4848019563658902,0.5366552129728279,0.5600651622774505,0.5626659923445972,0.5504236950707554,0.5236111067225461,0.4903186013695969,0.4694976193346158,0.4931873789420932,0.5182274431392785,0.530411710144277,0.5260483389515885,0.5270331185725822,0.5238899117753698,0.5104366972409747,0.4963769691343726,0.4986019471271529,0.5015053114427476,0.4672852830942876,0.4043367451200252,0.3359977721902342,0.2647349768523645,0.18943462010754866,0.12002134817386012,0.06551160398107936,0.08747336476329293,0.1556656542265954,0.2261981923606403,0.2975501417941343,0.3659409353646562,0.428962778073568,0.4513264900890167,0.43073961034871505,0.43606768905743787,0.4329039022550304,0.40455788921378943,0.3615221871160935,0.33499247138472044,0.34378373852570665,0.3694018119150232,0.4111356361238828,0.4786270153291555,0.5510398339691333,0.6205210855760629,0.6885992093465921,0.7533579406960781,0.8114172344053795,0.860832279887198,0.891941742489745,0.904894163307076,0.9024784928565422,0.8943682787072135,0.8934404132814279,0.8840637274146387,0.8360320136831866,0.7697986195610008,0.7019709751729114,0.6318838668313947,0.561179430712729,0.4911518341648197,0.43352478486608426,0.4516454325132268,0.5195618956168903,0.5893868945576727,0.6625561631615425,0.7339720460270313,0.8044475423772607,0.8643083958855001,0.8855799115631596,0.908023901880916,0.9499445675684648,0.9679174189075198,0.9691403197548302,0.9332531967358304,0.8820133468537105,0.8471378395256225,0.8563388908505934,0.8975136681296231,0.9296548061121379,0.9569592360953316,0.9426881056968784,0.8743388480455808,0.8050306314746266,0.7320733513079093,0.6631706745761221,0.5950596332673043,0.5278122869223529,0.4613673772977868,0.4149153297781242,0.3922454953849656,0.3830409716966362,0.3789714232157063,0.39694579130790897,0.4182675482413899,0.4364813791518701,0.38126427096249504,0.3136923766806644,0.2455344136032046,0.17647575050897302,0.10376880261491084,0.03603473692091064,0.0,0.044855624354065315,0.11436901529804265,0.18620359373812975,0.26198986827896176,0.3351812336082233,0.3999857149149103,0.4532032524658402,0.4805353194052494,0.4839003428789309,0.4760406657991912,0.4495388605999241,0.4178250387554524,0.412836448392467,0.4431396153039152,0.4783455739598576,0.4742824579483688,0.4462869423434982,0.454336480317948,0.4865520924722494,0.5078953029851737,0.5122195117841236,0.5099981225294349,0.4951582798976325,0.455521576118901,0.39459136319727295,0.3274850190532897,0.258505063404855,0.1890756440715612,0.1935057929840759,0.2594384260704935,0.32772721170724795,0.3949034515421804,0.4546600487190896,0.4701910019259504,0.4380159557423681,0.4192985560925721,0.4139159204574331,0.42076437736417216,0.4483345450718462,0.5027294784083539,0.5657341852381036,0.6315029368356405,0.7030997069510098,0.7788909117736208,0.852974399969514,0.9222900924103108,0.9870179879096512,1.0,0.9755751936561478,0.945649874364559,0.9120849697897172,0.8765395785870534,0.8945197034138522,0.9472665800676888,0.9874546412488616,0.998779985180107,0.9893306412098768,0.957575741754132,0.9210617457326918,0.9042549763428834,0.8575238055087919,0.7874283909574046,0.7116897938283863,0.6486315633749341,0.6725804001343639,0.7406524077305882,0.8090373275236523,0.8729330995851382,0.9129415163288886,0.9223776459519044,0.9247616526353064,0.9337235921153488,0.9327586183966764,0.9229291623106752,0.8925517720452384,0.8460168912234193,0.7944940457342927,0.7312874779606792,0.6646581318175103,0.5921367969626129,0.5168865145386522,0.4477965232229163,0.3960804578521181,0.3737392230165729,0.3724178408208737,0.4106883968691307,0.44783155808539293,0.4726442951397528,0.4696547870873414,0.4684325235861563,0.4821268042073695,0.4643311880838871,0.4097292067717778,0.3417090976838527,0.2789064800962172,0.2939753167210316,0.3622463392107044,0.4298171005655428,0.4949990132550687,0.5293981110895128,0.5292819023731677,0.5270022826016344,0.5443948396497368,0.5499875256254959,0.5514868375371381,0.5590167355600347,0.5587420899345018,0.5362484179362098,0.518067353400829,0.5299513148524239,0.5612834476312061,0.5823757747594837,0.5879246647188351,0.5913895595968118,0.5743468564089608,0.5274324793287671,0.4669689926809578,0.4007742973512659,0.38091985094784186,0.4395099133192896,0.5052571877964839,0.5615375847400023,0.5779971394416746,0.5660819864267356,0.5476424632204394,0.5387345865508045,0.5275601054093894,No
5,0.7419429583075028,0.7809872062260357,0.7867608479420147,0.7701763201603005,0.7783953356065714,0.8029966866269558,0.8235752805522489,0.8294184812583991,0.8187626256593481,0.7839834982614824,0.7759314552885148,0.8105494060518286,0.8549409140338438,0.8777359383695558,0.8406970540018444,0.7643145969251648,0.6796169770284963,0.5994157363111011,0.5169897337611662,0.44891609297739343,0.3681644370132273,0.28191482376482435,0.20155567763306426,0.11507824884190375,0.04465354560419321,0.05713594807830536,0.13839315615419845,0.21865811984310324,0.30528289804845365,0.3931959646776786,0.4743752403676633,0.5594324298488504,0.6474739676197245,0.729337579448998,0.8126625007576207,0.8682034115882307,0.8562112569593938,0.8251364449017715,0.8084261261594565,0.7836283867536009,0.7441993190108389,0.7379295775970292,0.7689812756713394,0.798841872331099,0.8363232375834335,0.8506669831099127,0.8344701263416441,0.8207493785528728,0.8426718254197096,0.8646842454881887,0.8789048406581608,0.8862215715274926,0.8705105850774955,0.8386739106083025,0.8421391741262383,0.8816964851455373,0.9154894688621986,0.9056556488955774,0.8447992642076965,0.7590994040140253,0.6788445767770606,0.5928532289048036,0.5124734679102616,0.42615419251608544,0.3403189857812905,0.2628523862287755,0.19129342743033814,0.11082521855725204,0.04854173763077907,0.07377351761476936,0.15017886213380716,0.23655904542150985,0.3247100438067019,0.4071310699298212,0.4907603492756827,0.5790265591768637,0.6673769408036271,0.7557273037703821,0.8437982862445483,0.9211848641839626,0.9371186487990586,0.9074651315413852,0.8721032314664059,0.8341069059386259,0.7845972763498226,0.7312054096742913,0.697424323493232,0.7101393237472899,0.7406560514947746,0.777048585488588,0.8011668380151087,0.7956454135553932,0.7697847269955536,0.7625974937226174,0.7817914453076604,0.8010671562183724,0.8140386754335416,0.7895794084931911,0.7567658579307375,0.7516009016351957,0.7881788450981733,0.8260868708894831,0.8223999079053732,0.7574742402223669,0.6806282183425101,0.6212517615312729,0.5492761251124821,0.4690114352252871,0.3837372367207452,0.2987821132328277,0.2175502636764235,0.131330115350069,0.05210614576244122,0.0,0.04867548805122013,0.1359894574608531,0.22417109924868275,0.30681823051725954,0.3902162699792211,0.4784578542978775,0.5649583176141237,0.6452650824129957,0.7318138092299511,0.8101019170380117,0.8431991779350251,0.8320371978341579,0.8108625362663731,0.7697137581920803,0.7267144719732224,0.6813735026385191,0.6587527696499522,0.6842674441590066,0.7248888158801079,0.7649529947490559,0.7877070522798952,0.7894224907721028,0.7820728821684546,0.766351569369812,0.7737223922719412,0.7858727480427392,0.8090683023552361,0.8123387732445275,0.7998264589801252,0.8049714432416453,0.818276295794244,0.8252066014408925,0.8158707832049983,0.7885577701010726,0.7488840322458556,0.7074598886771037,0.7078289411428091,0.7539190098974766,0.7951902594424107,0.8360813530077349,0.8649202703563972,0.8876701090040997,0.9091692016345064,0.8595539092313227,0.7736336070708965,0.6861584767826381,0.6057017743803925,0.5195024657689025,0.4319801036589235,0.37799173485866494,0.4338900078733867,0.5203345621700899,0.6005677619564753,0.6851942181183317,0.7640603821080338,0.8374754385427143,0.8685171144358617,0.8599987270007257,0.8259346167767627,0.7891681118495963,0.8031202258172332,0.8382244554900862,0.8462673726879679,0.8345350740910047,0.8171750132749376,0.8029123450765631,0.8198987080545475,0.8396668866672625,0.8309067751045074,0.8034671890906311,0.7671402725266905,0.7402942336752789,0.7556539150747819,0.8070071220328978,0.8577274666900125,0.8974498966951516,0.9307310358872836,0.9649038977697773,1.0,0.9839999924643684,0.9112785173448344,0.8276312642742816,0.7473933725510546,0.6603914711483985,0.5730940903506152,0.4928676664605409,0.4259920248788105,0.4691297941194166,0.5542827572197564,0.6348369246028129,0.7198888671413675,0.7998779544957766,0.8780884781479557,0.9350990847458452,0.9514569000045066,0.9366487976269606,0.8922498000754908,0.8784953774670405,0.9088473125076292,0.9268515579798772,0.9185676262729848,0.9119196416218136,0.8929498779003682,0.8666853008387345,0.8646074866093065,0.8853128532742367,0.8878418076674981,0.8566390074085792,0.8201999617725321,0.7823603153543279,0.7822326694023776,0.8214449645979676,0.8455683108669787,0.8704839788580236,0.8967196187803349,0.9339102237546276,0.9284637596814462,0.8575636134122617,0.7763985065097598,0.6919642178615195,0.6037700647845887,0.528129759516972,0.5478662817961346,0.6330786057392486,0.71463772308094,0.7974162366487663,0.8725007565345904,0.9155035751121364,0.9095777805833988,0.8781841737387193,0.8336819003328564,0.8234570409821147,0.8539875756412787,0.8641147226915948,0.8618843258971718,0.8471120552027964,0.8205161332671065,0.8038972024816244,0.8177580155370128,0.8220915056959568,0.7976375810813336,No
6,0.8499069792954276,0.845642755077522,0.8446175108515618,0.8488781266102711,0.8501819698967025,0.8501757838070839,0.8471508350372748,0.8246204772245903,0.8117238157040189,0.8349874861749952,0.8587159230333848,0.8211884262330816,0.7455027281093253,0.6712132910700519,0.5905551880248375,0.5096296307907514,0.43268929153753743,0.3580374731632835,0.27731674875335977,0.1966714326182261,0.12239675617285573,0.04606342736078972,0.0,0.0470918661477141,0.12074214676928186,0.2013602627785135,0.28149210266401903,0.3547119309156491,0.4336309431039233,0.5145064515146,0.5907023922893951,0.6659990361950278,0.7430077498391113,0.8152330598777008,0.8661962267370188,0.8669756637117013,0.8534076177741104,0.8454335578608191,0.8298386912721581,0.8030041228280097,0.7633388464976544,0.7195454305434333,0.6848809137476103,0.6841192335491985,0.7248109049658052,0.7714540703541043,0.8037056667168979,0.8182024161871618,0.8218162158723922,0.8167338443820519,0.8092632976626281,0.8118271659199101,0.8177236177385018,0.8214768773484066,0.83200168779989,0.8377589106532705,0.8471728850319903,0.8499419603307433,0.8406289783085873,0.8148279715397716,0.8043094029162993,0.8340014057169297,0.8501945868737929,0.7953194907668569,0.722229518949033,0.6438950191668523,0.5629556718068253,0.4848946795423538,0.4111518515145031,0.33067419793466113,0.2503241262212917,0.1770512644925034,0.10843373643889087,0.05589359858080345,0.07501200800534548,0.14361837990066595,0.2227101932869341,0.3036815229773285,0.3846590050424391,0.4656364871075504,0.5464127298204015,0.6214379973703451,0.6977416551406893,0.7724917009576612,0.8448575525050479,0.8735692068362794,0.8610837521227116,0.858226872437926,0.8512742451637282,0.8292181450624246,0.7937836752472309,0.749954050890813,0.7065537903911379,0.6852293454621022,0.6974982518682752,0.7368546448126679,0.7759916619400652,0.8015452020269126,0.8157695448550465,0.8154042785054795,0.8081224304230921,0.8123407490923401,0.8258046871836028,0.8404538583414229,0.8496342296889469,0.8552083035197872,0.8608721498265769,0.8620175880667512,0.8467019297338491,0.8255106720429829,0.8347991623536696,0.8746307622530988,0.8906161144893875,0.8335400699793402,0.7598701651118029,0.6821757087759382,0.6012388202514393,0.5225800880038721,0.44922913517678403,0.3689650447402425,0.2880862442801189,0.21205611694521032,0.13659334164339765,0.06443346322824718,0.07018730287043795,0.1370202689496024,0.2164311157756421,0.2973396949452084,0.3739466981370706,0.4488930459533224,0.5296570123316992,0.6086283521834578,0.681799911197628,0.7597545228785737,0.8328489875487949,0.9049051027999848,0.9277225336119028,0.9116171112477808,0.8966261510214008,0.8857513087463668,0.8711863590474275,0.8440344999253822,0.8570705654160612,0.8942570787248937,0.9160967721944488,0.927775375257438,0.9409848550114928,0.96102848015383,1.0,0.9859599772896364,0.9195985984500736,0.8442357754580357,0.7698018617261099,0.6910707317370216,0.6179146804534662,0.5431292563823128,0.54614901299647,0.6060038401218152,0.6737645666483619,0.7506552521532651,0.8161221759039176,0.8941109061888645,0.9551206886191322,0.9512335641106152,0.916815438131948,0.8799686169861366,0.8663154252886819,0.8852975085838296,0.8965619216948694,0.895635201625265,0.8864740463004998,0.8770096606338579,0.8676437836139378,0.8532021544500347,0.8429905348253514,0.8391256675850468,0.8447814821104672,0.8471315398990903,0.8346807570738396,0.8157305501162165,0.7803149780715634,0.7387775108124525,0.7289071287988583,0.7656430849391663,0.8112061997882637,0.8486693373652981,0.8747458299506347,0.8938901371771287,0.8984803505771891,0.9112638273402904,0.9486803319481436,0.9562050836428616,0.8922707219792402,0.8150238500045041,0.7408690332925135,0.662830296492276,0.5920450841136212,0.5759802417474734,0.6470966292270565,0.7279625616620448,0.8046282902800702,0.8770395153828737,0.9191714166952444,0.8937058493716669,0.8672966464240529,0.8433212549226256,0.8612522909246406,0.8809283717051323,0.883062664775787,0.8755072990895364,0.8674936831338963,0.8619891789020274,0.8501802164016731,0.8489516659036241,0.8427746544509721,0.8445492861340164,0.8569786522027284,0.8601013677858856,0.8511914066438856,0.8367828898182353,0.8148718025653364,0.7719380399654493,0.7268330681165623,0.7288479733112464,0.7674621097514628,0.8107060345805465,0.8443369235162467,0.8682238842035653,0.8834114734688246,0.8863215638949543,0.9031199563927524,0.9277092010284744,0.9130514062145167,0.8475135005708813,0.7737270897809111,0.6971965719818342,0.6163191846527528,0.5449377287551967,0.5606735771316819,0.6376470821240386,0.7184502612343487,0.793786546656161,0.8675459961859914,0.9167834215510284,0.9020016131530236,0.8729091780697434,0.8453462026846857,0.8606999363631639,0.8823353313898289,0.8840502757937201,0.8774811119586722,0.8810815865028211,0.8761227323414301,0.8757968497536179,0.8757968497536179,No
7,0.7082777085533034,0.713608097814435,0.7372700484141709,0.7258614842478872,0.6948922003859934,0.6717614532460687,0.6764150244866339,0.7154333056965405,0.7537681045632061,0.7285332670738685,0.6440016872706109,0.5374675355663889,0.4273735004761141,0.3107875912548832,0.20060796521606816,0.09423850581461313,0.09046509083825027,0.18579407271175707,0.30397922902839397,0.42673004204709386,0.5418388636333296,0.6514770856989878,0.7587407208295356,0.8241126102205545,0.7733040296345308,0.7156902392534872,0.6789266289950802,0.6503107658784573,0.6330556014620821,0.5863065220636163,0.527686761347939,0.4746392751993551,0.4650534913987987,0.519508335246603,0.5923679214101965,0.6634319491700813,0.726766688959688,0.7462970178752419,0.7478112401469561,0.7404288744347025,0.721739815897259,0.7037659173956561,0.7027746893947611,0.7091803089010901,0.7243657313008276,0.7355225019686955,0.7172945432775606,0.6879840796748096,0.6762553477536399,0.7148975676859304,0.7638593278954542,0.7580487789736039,0.7048560060841615,0.6104703667226188,0.5037450217419197,0.3877829766095795,0.2776287182855777,0.15747173223127042,0.06642175098091174,0.090289148511022,0.18550339004528785,0.2841639849305171,0.39619761674352416,0.5056836986343431,0.6205453234640128,0.7290477744271007,0.8347439332955755,0.8425809517572462,0.7658504934378358,0.7248568196593532,0.7001471072929246,0.6707070969075706,0.6431488363238107,0.5846471671351701,0.5313459258090485,0.485679190958896,0.469015864128489,0.5214030913880046,0.5950226777452694,0.6733351653605141,0.7202800366609412,0.7375470476045196,0.7379623833571389,0.7184250856600478,0.7049400555789314,0.7034168559830491,0.6974923316074849,0.7049923320044691,0.7193156251045068,0.7179594883433391,0.690029881044969,0.6690031826818617,0.6707829510343517,0.6929371743222443,0.7418387274583091,0.764909142526407,0.7047789892572949,0.6048644073864562,0.4921098935355781,0.38447510352325054,0.2919289148104505,0.1937465737660076,0.07311744736884984,0.0,0.06470795887713976,0.1779392940969684,0.2976106526151168,0.4062504648142475,0.5201210794433999,0.6307078635204535,0.7392535481606086,0.825568752464366,0.7740498195934991,0.7013134217808581,0.6798484084792462,0.6641087149857978,0.6351140690492123,0.5848847095284806,0.5273779314137883,0.4640794178143053,0.4251350067631048,0.455383365452751,0.5286413914506505,0.6074015533298782,0.6758194526340215,0.7289596640202545,0.7471605831357104,0.7461462149768576,0.7342604092469585,0.7221493066859783,0.7216248689403493,0.7227596262991279,0.7391603874933237,0.7475698229160628,0.7545390179483378,0.7943549986634562,0.8038635614379008,0.790864519133748,0.7800657884012931,0.7811717777950387,0.7769399366668774,0.8020981138375456,0.8102748953165504,0.8089451384925641,0.7905751078423013,0.7551681947283493,0.6890453166241812,0.6111021196648845,0.5343598560946181,0.4993602994945578,0.5532684418204497,0.610828382735844,0.661144264558605,0.7032604362198196,0.7283620472352523,0.7484287149250552,0.7936973014261572,0.8726068787123138,0.9625270842348964,0.9722159905985168,0.8831320207757232,0.7729296493209796,0.6605933966844888,0.5489558626384659,0.4656047538576598,0.5254186396818499,0.6387508095114196,0.7457391523421824,0.8108288909340011,0.821301935905153,0.7909339418764585,0.7413491002982826,0.7305862559676131,0.7514312744850318,0.7703761220649454,0.776300021420874,0.7671536587106269,0.7602527649864164,0.7641189906021433,0.770009316159288,0.7898895073650922,0.7960711897704935,0.7961071938769573,0.7851730472578122,0.7571557841867196,0.6881743334630386,0.6215709062563879,0.5505267599498258,0.5562169106462034,0.6031442621991641,0.659956672410158,0.7146004278741999,0.735564375915124,0.7616520987944795,0.7895526882421517,0.8541134560522305,0.9277351144944764,0.9949745829272492,0.9783277543340788,0.8840932516146771,0.7747193890645665,0.6527021806493978,0.5413382927437027,0.5110446273814935,0.6068541368109783,0.7064236301814031,0.786169259832544,0.8288572059610186,0.8226755892154207,0.7887755443184279,0.7354273775324089,0.7518801910698829,0.7859799434251361,0.7959780198330795,0.7858973509966796,0.7750467452701293,0.7671241251759127,0.7685745457622595,0.7863606264468839,0.8035385177359018,0.8099930401983255,0.8091868258474939,0.7795619527053037,0.7146382508474938,0.6482556363193486,0.5769104471126982,0.5218932662737319,0.5574187171326215,0.6142411918166548,0.6668180993091468,0.6997066811333479,0.7200933230466999,0.7424948262802578,0.7818981734638135,0.8529625801574423,0.9426775916961372,1.0,0.9480061454110812,0.8341841976987796,0.7241072540766789,0.6160473155790518,0.5150773152766601,0.5351400533644624,0.6212809408443509,0.7081461017555108,0.7822076520008228,0.8138622586006221,0.8036695156346734,0.7611009312711094,0.7332610016631551,0.7567099549552574,0.7814330796398248,0.7856297787534774,0.7793858940943483,0.7709684429491537,No
8,0.8433320708448151,0.8309169479732832,0.8181013644580983,0.80287706528578,0.7734346100328344,0.7355658928495257,0.6933939463155849,0.6478510789947904,0.6302908986680961,0.6587971738015597,0.7143091838617934,0.7660451886507285,0.8042244352439809,0.8223787836054592,0.828156699312975,0.8381330233583175,0.8443190647046706,0.8385015824422141,0.8279353518902592,0.8129721297994372,0.7875269011110753,0.7656780747265697,0.7850717252462287,0.8157431434496236,0.7997623257715216,0.7175367802904966,0.6247484830862415,0.5220691821418235,0.4309259605561828,0.3509897293050006,0.2591425969943839,0.16733570261659736,0.06969668143918684,0.0,0.03540160479864385,0.13017847229843094,0.22395297018094773,0.3240860135523964,0.402195211600211,0.4894754404238664,0.5910587331556894,0.6839057316767518,0.7664306151887992,0.7940142465169795,0.7993831654381953,0.8103406728317419,0.7970935780501884,0.7578545013691063,0.7244644376658322,0.6806633030485014,0.6405538266099877,0.6359581922465494,0.6819083317682293,0.7377352750290656,0.7888725350174361,0.8228566836401705,0.8303295332903929,0.8496226170761187,0.8456001636916275,0.8325828471767176,0.8278957282269749,0.8308245469722104,0.8413294927142685,0.8170795901212649,0.7960216894838843,0.8056857793914705,0.8376177957107518,0.8649077098668249,0.8175398516555767,0.7289011113931276,0.6376564956291952,0.5361947732788299,0.4427402037205929,0.3431651591898275,0.2387168823863828,0.14101351364475345,0.11145221852576492,0.1794226871465603,0.27997475491961765,0.35928368997298143,0.4384167368946952,0.5175183761589581,0.6091618887651649,0.7049362017073277,0.8001703175011371,0.8571190345345818,0.8671655269730003,0.8531214292385361,0.8421108080134672,0.8220970097381803,0.7954660228499724,0.7602838496320508,0.7211887569526372,0.702125396234436,0.7263653573144269,0.7752814839923143,0.8270021285816487,0.8651500117158899,0.8773130654934578,0.8776361196826667,0.8778971224665502,0.888597811761096,0.9081780914287848,0.9062574220054348,0.9046269244904984,0.8824175265618996,0.8490229479578733,0.8523280151451735,0.8809633387702642,0.910063823002654,0.8843631075936247,0.7942217156217315,0.6980589068165584,0.6032382919976196,0.5054845482234405,0.4074003199696747,0.3127816955671907,0.2143256876769999,0.14044571256086025,0.14803505719864465,0.23834162335326425,0.3302745756807508,0.4326798850037696,0.5268821315523344,0.6255576144056865,0.7299592162259239,0.8251239153905399,0.8675422670275719,0.8639584957538458,0.8491561259555023,0.8340755461084557,0.8132145669914181,0.7815843395498403,0.7418602710731181,0.6954241388954965,0.667569874358704,0.6885944862833608,0.7396811618863008,0.8068140161858448,0.8060626812269791,0.7517934933178916,0.7307503271319398,0.7695026418927138,0.8074186028056096,0.8462289048700149,0.8740380426822822,0.8821539166861299,0.8963278476547898,0.9175394459238676,0.932129304128507,0.9184951080537318,0.8505752906308075,0.7611443774560285,0.6612948285008513,0.5743474518875171,0.5979380912779608,0.6872115043286908,0.7877588389272057,0.8790944164372636,0.9579162028790501,1.0,0.9675649016056962,0.9357150376973248,0.9077250439397776,0.9133455529681744,0.9458568854790944,0.952131079168454,0.9605817350818722,0.9499524772435484,0.9358122804361488,0.9286159617721176,0.9338306622496072,0.9332112349031592,0.9188306932626632,0.8858324502644646,0.8384942957131938,0.7868543307790605,0.7585674165496736,0.7903539573878353,0.8251221492758614,0.8543980249831211,0.8762047173225862,0.8972909039941834,0.9056246405835102,0.9161856057158926,0.9035796411602957,0.8598811080451862,0.7745105137991457,0.6820665870456497,0.5834906842165406,0.5315923986591025,0.6085100757613646,0.7041642867754208,0.8006047615975929,0.8900471535441605,0.9263239362081056,0.9060757900658128,0.8698164545047788,0.8425889358228638,0.8568413324377229,0.8823704087963082,0.8821295570120395,0.8753896888710401,0.8697681376791229,0.8821334648362114,0.8950355375762697,0.8951145613300544,0.8739985567277304,0.8647148599598271,0.8382485702887252,0.7873482337349791,0.7282602245936194,0.6915902600108073,0.7159504874304399,0.7636876283529856,0.7969541819527453,0.8349789830597096,0.8507309064360702,0.8496448716218725,0.8396441607124117,0.8453487205091461,0.8383477849624409,0.7788799830944826,0.6877626589249601,0.5924807445788667,0.5339594260090044,0.6008372951680547,0.7003339112537157,0.7887751444770781,0.8666916871693773,0.8935132622740785,0.8680461871177849,0.8337190353119048,0.8284953205667738,0.8498275060359077,0.8686855682743784,0.8824652386420588,0.8842707068344513,0.8841645710029375,0.8776054552682311,0.879605933674585,0.8772934270179484,0.8532482749210848,0.8233064385998614,0.7689897692474759,0.708714439477268,0.6816843001559234,0.7101154840922441,0.7581648503913656,0.7927686170979222,0.8304827500761496,0.8516098127340029,0.8696759285155053,0.8925827103343398,0.9007514198541032,No
9,0.9069470760598995,0.9135453539124192,0.9001216851387948,0.8804886482993568,0.891031453168355,0.9262975318735422,0.9428856078631443,0.9240043823524632,0.8535770959940392,0.7570792263148538,0.6624283325954449,0.5602530866045063,0.4749400401015944,0.39151411062303176,0.29511140325967844,0.19808913503894646,0.10633929820687428,0.07835102868032395,0.15099781853290128,0.2465075953532374,0.35088749307513223,0.4553265802202311,0.5516468708743385,0.6491403572040595,0.7413494322081859,0.8279515884812854,0.8921481084099192,0.8988307002156148,0.8872842447435129,0.8705944028317634,0.842414359368598,0.7966931350081012,0.7345239049706584,0.6781476546751237,0.6304579970284656,0.6294008189722013,0.6860967035254293,0.7602974740437454,0.8313659441496235,0.8768820342617583,0.8911940607531716,0.8885202424897878,0.8799976013209065,0.8847147312910126,0.8863837390750426,0.8930624864358403,0.896541783014084,0.904060643761276,0.9105422309702036,0.900881539264026,0.8940187995227118,0.8950402561147996,0.8959933975029426,0.898371258162048,0.8829614494681925,0.886501764712109,0.9142345585629033,0.9297904542899059,0.9324456171791876,0.8924171424549348,0.8051539216206705,0.7057475251537906,0.6119683581728352,0.5091523045967674,0.4097274715233836,0.31385715600633524,0.21119241439570424,0.11770695204166293,0.032113585140947754,0.038248779032658,0.13060986078358527,0.22434874726781293,0.3269333318720846,0.4229514828071108,0.5213134580253598,0.6155278094332106,0.7106073711254879,0.8014831761196566,0.8680573816135599,0.8877291465796195,0.874605506813505,0.8515170912983854,0.8094617353532192,0.7530006798212214,0.6905003634609306,0.6351772237430298,0.6052259856317004,0.6322902170452671,0.7021048274581065,0.7765182002415634,0.8385881396972439,0.8657624020999737,0.8704861102635404,0.8679696349975596,0.8519983411662755,0.8543167996771339,0.8566695192969453,0.8640666349747683,0.8667247785129646,0.8672969903560401,0.8682658353819133,0.8770406539586049,0.8774334384806355,0.8742113981436812,0.853831072820731,0.8644441041876616,0.8961224008185729,0.915985414565567,0.9130141208271793,0.8802215446622605,0.7925524245677307,0.6920585002522184,0.5979084345076238,0.4949229782154914,0.4001932616671797,0.2993597388227458,0.1989115648108848,0.10393232297191556,0.008223533055399024,0.0,0.08606536922629003,0.1800749949502778,0.28310060188359354,0.37778789095131615,0.4770738601093979,0.5707971689035551,0.6671209771086712,0.7602405247602804,0.8410213254942545,0.8807436682026102,0.8784181911786872,0.8564678396438616,0.8369094566204198,0.7940418982454921,0.7384773051259177,0.7241842002559327,0.7861738741109046,0.8406016891560923,0.8809779899495978,0.9008244205913468,0.9216384686139534,0.9249759468833468,0.8944821414120978,0.8249856079871873,0.7399128590823756,0.6446296064849191,0.5509205976933764,0.4495016497159197,0.3553862625494064,0.2766453432995106,0.3291140527439629,0.4323883799319741,0.5272808682133079,0.6279224553780505,0.7326080857774359,0.8344307263286581,0.9224203429478914,0.9817007740240598,0.9765213333630912,0.9619409705698371,0.9342696780679748,0.9064121284775052,0.919097604350494,0.9235188875844706,0.923277527661248,0.9183963878045164,0.9177803221857944,0.9102426560840498,0.9123680843177826,0.9114779137911724,0.90101706400083,0.8983431337519241,0.9093867574995552,0.919868933489404,0.9215707430397512,0.9178579178117474,0.8930632795516538,0.838846426575323,0.766492267878893,0.6871429582968454,0.6529763693988395,0.6883403164559734,0.7532048696793046,0.8125025503278571,0.8625118944868702,0.8975771504818433,0.9183953203266207,0.9386356456505822,0.928856309693512,0.8877443639627989,0.8133472129725055,0.7231680003597311,0.6280421686442137,0.5332645721516498,0.4952456307951214,0.5782398495922354,0.6792333479551009,0.7732907894371273,0.865256484189916,0.9335052405322124,0.986652225231332,0.9805185683651756,0.9786820934277553,0.9559040345853294,0.9261337904371999,0.9281287742154232,0.9405353061147148,0.9396627638395804,0.9392650666675844,0.9479923221903948,0.95033174991339,0.95592074421544,0.9507250772168009,0.9470327046276624,0.9416364041302504,0.9358762092151338,0.9317329887893068,0.9291630587448424,0.938640713885064,0.9374963044227876,0.924579142715286,0.8888253912941042,0.8220796062911162,0.7518520716021995,0.6882723616357385,0.693730293008967,0.7492483138466752,0.8089274967629023,0.8631448543403921,0.9009319116608884,0.9255534459426962,0.9407140532636452,0.950074969992644,0.9223234727911412,0.8548515935402079,0.7606803726609697,0.6668797926063863,0.5733270396212664,0.4719820190648585,0.3918010689683984,0.4292662460342518,0.5102882151611652,0.6019393958753188,0.7040433756475324,0.8008860821623485,0.8938422409374341,0.9730228062361086,1.0000000000000002,0.9859060648508386,0.9739968323576024,0.9379479308644154,0.9241504630908792,0.9458815558546634,0.9541520764294164,0.9434262243275,No
10,0.0,0.0771850028410832,0.1696180101751963,0.26610787582546513,0.3573463241501649,0.4537650136691671,0.5307764654262825,0.5717672435664738,0.6236240459092859,0.6698813442423421,0.7581256309657636,0.8164745033173509,0.8249284701162047,0.8204416523905491,0.8008613785958876,0.7883664145485361,0.7683492053026135,0.7445165017111532,0.7586889484782968,0.7901416213402851,0.8021924047979565,0.7814652609725974,0.7980133046821403,0.8023670696329737,0.7994867604188921,0.7994736723102196,0.7994736723102254,0.7992560839234544,0.7907076267809103,0.7894081967113522,0.7930187044830339,0.7758609084650303,0.7450386806862517,0.7208970849816451,0.7267818155816308,0.7671256796416805,0.7955652496398689,0.8133988890884887,0.8083212934480708,0.7149574214360535,0.6217271388494126,0.523628167558696,0.4258178733271609,0.33232729589648513,0.2293860006533415,0.13428620453016227,0.052274224325489886,0.05137248172753517,0.1293434483254685,0.22248499048538076,0.3162219651504301,0.4115033614186461,0.5071083848695517,0.6104559649008408,0.7094902589526766,0.7843809777268695,0.8140415925586868,0.8073892380788068,0.7900668375837976,0.7676749874518298,0.7501290524521587,0.7394553369429493,0.7555287255164769,0.7791229086254214,0.7906588916448951,0.7828584585151293,0.7698468665009834,0.7679488388959348,0.7803661412253964,0.795045442953265,0.7865386207642244,0.7801812291730428,0.7751314899068908,0.7830372723976098,0.7785766840281456,0.7494304955979583,0.7242237267528415,0.7287621797573662,0.7584920168113449,0.7960116446101579,0.8030983851201328,0.8274272543243819,0.8434780809432783,0.7658910188580823,0.6754200612574308,0.5757811982927261,0.4722672227275255,0.3688327856861935,0.27223407843064096,0.1801189103095273,0.11877741876404554,0.15789326195840947,0.24793137182803426,0.3392933928686628,0.4350869584290005,0.5288958367003149,0.6218179132724544,0.7150551365594721,0.7940187723951346,0.8096116613405242,0.7983545692406675,0.7847859885227819,0.7692047363302599,0.7507501411911799,0.742843618099372,0.760316514753627,0.7823209437101817,0.7878596994574691,0.7738968525757077,0.7688008125282206,0.7819155878406827,0.7960881147260943,0.7993570082612329,0.7917960022777988,0.7730422351791189,0.7671923903581679,0.7666358417757959,0.7544123789619677,0.7204593992510386,0.6982371391710827,0.7181211203006945,0.7476723617971943,0.7726153538491312,0.7847209165971922,0.7266264991849829,0.6366500094210108,0.5446921717697915,0.4586766894263359,0.38007037264223054,0.28799121780180603,0.1912256225365938,0.1566810559599865,0.2284994559546492,0.3246663218431001,0.4280771532490568,0.5307688744490207,0.6227929941878265,0.7159760900286318,0.8068235408915736,0.8951287404731427,0.9546473969958241,0.9248730527599552,0.8505035028616146,0.8185155249738536,0.809133750136658,0.7716304445794655,0.7747901875120713,0.7998310143050598,0.8283279410197417,0.8113150767996464,0.8131022206345401,0.8240892302292091,0.8366738061847088,0.8457851116934341,0.8469413189774289,0.8303175003302188,0.8157838177424208,0.8156057770740206,0.8318844997623318,0.8342805106209521,0.8213900629418858,0.8002991788828575,0.7991932338573233,0.8113162404043688,0.8259039927558678,0.8421593514423578,0.8507806322841136,0.8537458405361729,0.8320624778357579,0.7612405836482987,0.6695184207456906,0.5784283362134659,0.4820328263770846,0.3979796053045683,0.41719660130268266,0.5161198984483868,0.607417028706722,0.7041566914196287,0.7947446284126782,0.8853769119821366,0.9782541001444588,0.9999999999999998,0.933111499923543,0.865539838916553,0.8442238931811097,0.8185984637426846,0.7808764098477707,0.7876833618833163,0.8194170285775713,0.8305264981877973,0.8281059036983411,0.822428532132019,0.8229650296848494,0.8344172672771271,0.8372609492307366,0.8215130903691363,0.8073441556792289,0.8176800128182597,0.8301040542347182,0.8347459194783788,0.8205488760387396,0.8003836886469211,0.7953407718940901,0.8158383022182878,0.8288639108562552,0.8456212752010461,0.8542480850150341,0.8513298717219364,0.8101923272377902,0.73190409078756,0.6411243816362726,0.5454524696573093,0.4520876142346697,0.3592952845166881,0.35776153913402564,0.4523317853372191,0.5441410229291128,0.6416887452485669,0.7340662360979721,0.8262270962725664,0.9192840565631084,0.9925328829866256,0.9779873978078536,0.9036546781339704,0.8455984821758901,0.8321884272634696,0.7944610961428821,0.7775458012551992,0.7976182795970657,0.8315459863666452,0.838237229687538,0.8382748572332079,0.8392455812755848,0.8505140135289035,0.8443798237725841,0.8462071438719592,0.8491207387855286,0.8421062056687891,0.8526456247174254,0.8519414982552738,0.8601110775883299,0.8433311629935865,0.8127228071033226,0.8124625356085489,0.8389340254670772,0.8538449426160641,0.8722313784857418,0.8885766951574514,0.9054134479783718,0.8815710633265075,0.8253598519811594,0.7364598303397043,0.6438872928665396,0.5462016396698279,0.4707236981560949,No
11,0.461133056617473,0.5025588658748537,0.5788123053807765,0.6398158402901333,0.6842767158100049,0.7419013170109146,0.7878917883509164,0.8291003945466875,0.8411442572987415,0.8238544746971591,0.8103607930814334,0.8183475731460657,0.8298466092739047,0.8373669628108573,0.8282537364960347,0.8116515973390082,0.7963701233716203,0.820481800168851,0.8462494087682388,0.8268078292066872,0.7507082869855746,0.6576486928872936,0.5640065701196753,0.4637429778305036,0.3655930292441243,0.27534439749519324,0.17621090046132148,0.07807764399720751,0.0,0.008693459456466268,0.0940544476409313,0.1892894706646857,0.2817572961201147,0.37669914812001903,0.476993526261517,0.572789070748615,0.6645500408523073,0.7617947913310605,0.8451530493067054,0.8522082064154943,0.8184403612208746,0.79191871511671,0.761232466959066,0.7293681455060221,0.6910904108593103,0.6474543645215409,0.6118810695806209,0.6135559386669789,0.6459648048537707,0.6980625727358596,0.7520804779704136,0.7979713026080921,0.8285726262588404,0.8354030753199015,0.8265239460452036,0.8220349287714723,0.8219619871962769,0.8407071981468841,0.8502740296862419,0.8477723960811436,0.8296190665999263,0.8455848565308208,0.8744033279719627,0.9046321945412166,0.9056199316046558,0.8528212275890963,0.7621025308139739,0.6715294252498529,0.574428304780559,0.4741984115231113,0.3807199827596559,0.28678540127643704,0.18686011521568635,0.09918078072029712,0.07348723147215662,0.14173997116132098,0.231075133549278,0.3282884915063926,0.4184619437963664,0.5174511160854199,0.6178709480714446,0.7182896436078166,0.8170098378611967,0.8961926178227853,0.8939688189809736,0.8695306935208615,0.8508898531553044,0.8272913514519893,0.7893572612862687,0.7484691771022518,0.7070010515051568,0.6911890460906303,0.7166597059327262,0.7612620997438457,0.8128068017776984,0.8397267392596934,0.8472088608628516,0.8450782573158448,0.8329454013117037,0.8288716354753143,0.8375652446523867,0.8363406784889621,0.8338491575883118,0.8150208365471896,0.8155622689867912,0.8332779828838108,0.8586892869919762,0.8338532072481109,0.7509609597837781,0.6602941236366744,0.5635708359461786,0.4729635248001816,0.37344170306917496,0.2740815598756388,0.1838811319982072,0.10336915420219572,0.1158684951700728,0.1995237227407696,0.29120113215172183,0.3855566366649184,0.4858779002235986,0.5863003202114452,0.686409796578501,0.7782769375046559,0.8455918073122446,0.8458888496512535,0.8351366666626296,0.8158378617437412,0.785153810282974,0.7419919396388373,0.7014518741147622,0.6868164911773941,0.7069017185726791,0.7525393959681932,0.8076318837475085,0.8439879420826915,0.873843952251671,0.8923726796896985,0.9198793478424478,0.9183636375620171,0.887216017570968,0.8542447914947726,0.8003864720117609,0.7540494787665144,0.7297954107418188,0.7507520597959367,0.7940943345279317,0.8321254361982542,0.8588146410964439,0.8780514450444563,0.8895763113372956,0.931702794555169,0.9450424548945472,0.8723981097577014,0.7836124017881627,0.6851713991936619,0.5917573519335202,0.4977661023484079,0.4021028974983161,0.39726554843826856,0.4910751976358058,0.5842420049862385,0.6783410526669387,0.7718000139643462,0.8538373956468515,0.8945977125111215,0.902132836311315,0.8776547379766206,0.857675100967749,0.8624936909380999,0.8888863487870358,0.8901246894689743,0.8781548490138811,0.8818142462448868,0.8778626774255163,0.8785744600149494,0.8878173295833569,0.9003951872903897,0.9018073038948616,0.8706113948249257,0.8266093642499726,0.7799471371825943,0.7418009043745812,0.7539119349950398,0.7958973919870285,0.8386797912621604,0.8730506056977687,0.8891673033257754,0.9099377755191268,0.9481334671476332,1.0000000000000002,0.9752210948538084,0.8920025013688762,0.7982307871618073,0.7060860807052751,0.6108653209946227,0.5175370521587344,0.5196143931116037,0.6118182101287377,0.7097009611207665,0.7994747609043669,0.8865719695570664,0.9421961769176328,0.9491611848748758,0.9243656049798984,0.8959059464641468,0.8819845166852167,0.8937667087060677,0.903898273481328,0.8852796706734771,0.8661074732806198,0.8792263304100534,0.8784866224528882,0.881178954515849,0.8693441118717506,0.8416745747863283,0.7981464395904074,0.7453032777438129,0.6934240021796352,0.666500985419314,0.693865188954075,0.7335297320350225,0.7675702186698191,0.7965647478272302,0.8282093093109586,0.8515224395647321,0.8907312594801466,0.9448273018578914,0.9330006276567804,0.8537263533505322,0.7634347660792764,0.6637716168282857,0.5634027505700951,0.4777488983088922,0.5068379092320408,0.6043652971956555,0.7003269679229367,0.790514666787612,0.8689692861341676,0.8953943817799683,0.8907407247242147,0.8582486076153903,0.8484032691266841,0.8669387076435824,0.8820089588803885,0.8791564870536226,0.8655662982499341,0.8505924863148218,0.8623329925934293,0.8858941099595665,0.8820543316055984,0.8542698311217352,0.8173257904420377,0.7698896266767667,0.7352074823130181,No
12,0.4591306048807078,0.4965788813319281,0.556907072866557,0.5269336773176709,0.4465251289558905,0.35907759835234465,0.2782176881527141,0.22382370061161885,0.2629469363767487,0.3478491024883208,0.4281226749116127,0.4972736821737074,0.5845370348555767,0.6757991144336883,0.7667616220431329,0.8502224131065577,0.911964388100568,0.8818056719259972,0.8501705752306783,0.839041811349728,0.8381225613954013,0.8240043886313988,0.7972954354311861,0.7577132560999777,0.7113448376545908,0.6694959287254278,0.6480190985637684,0.6747316313308079,0.7183359881732978,0.7595105947749368,0.7836897666117364,0.7787589361645557,0.7664102370515681,0.7584187290226516,0.7709237770888999,0.7793990165324527,0.7839600602467673,0.7944485409973148,0.7942240576442992,0.8003702965885762,0.8054618084509364,0.7922602125204696,0.7462998809728878,0.689162520736641,0.6593046865267638,0.6810256411959166,0.6895621286221085,0.6654681189608247,0.5928907206966534,0.503815901779844,0.4215904634352168,0.33294430658290186,0.24306852667367096,0.16116847144530833,0.0735940921850653,0.0017182397120403259,0.0,0.07494403855238008,0.1585357969109069,0.2494452304286849,0.336383431807866,0.4198705595025296,0.5107914129787811,0.6020690641302049,0.6929953959474215,0.7740458642728271,0.7978612864535204,0.7583369460398732,0.75428131943032,0.7628923521571254,0.7671380197258302,0.7530651729689433,0.7336708647074313,0.6961003055699269,0.6462179585228567,0.6112845770044062,0.6099190050749836,0.6496451008284445,0.6949828195070159,0.7330401098728105,0.7538925684922686,0.7553291643629605,0.7410635763208966,0.7420660113098471,0.7544277582743952,0.7628737350873906,0.7575518779549786,0.7497178846572223,0.7402258499237935,0.7395336994425736,0.7230653540058756,0.7008754650794811,0.7041521492512153,0.7349777941977529,0.7395980221673126,0.7173443400530826,0.6375097805761951,0.5521846439013098,0.4672897397354861,0.3787333628527896,0.2965225072362956,0.2068496044925341,0.12443401476034488,0.04221434929463164,0.013191179120655372,0.07503393592028562,0.16213323868817464,0.24459558995744746,0.3349369006263694,0.4192083028342117,0.5052676997129943,0.5964656080183848,0.6870866000300571,0.740298246690928,0.7232095352199537,0.7642044344872312,0.8253449030957019,0.8726772442661066,0.8944837768493346,0.8952169605251361,0.8674862943921597,0.8304330442305445,0.7854004356734141,0.7377076584682436,0.7015195000296608,0.7028956637962152,0.7386810258233572,0.7781011169820455,0.7994595840782066,0.7997426480150219,0.7874986571783114,0.7840267765146505,0.7905973919696605,0.8240090125649581,0.8346853738932636,0.8436493083048078,0.8518959314362929,0.8494087814106399,0.827631599212354,0.7870645806322563,0.7557940628032871,0.7729495050864348,0.8143970790672526,0.8629334985665345,0.9092066521722107,0.943906378001315,0.9630376241199186,0.9609194831993612,0.9373626195154968,0.8986929495832496,0.8403873131626034,0.8186298253300726,0.8548995334047047,0.8137233061194113,0.7352254417793473,0.6533564508709855,0.5631507503625728,0.4782456156488984,0.3928505737731567,0.3025844387657541,0.261421730158766,0.3335625370157944,0.4154440997936519,0.5047065926190508,0.5916679444295381,0.6749504197468414,0.7562909818827397,0.8047467024013069,0.7989640840133705,0.7907671073194418,0.7729079942147685,0.7507747331384709,0.7623687991850308,0.7836084804442491,0.791120787748697,0.7884241848182765,0.7930421749024934,0.8003937175241644,0.8045129313443253,0.7936742567361954,0.7826931894328746,0.7896556771709335,0.8009243793758171,0.8011263520075775,0.7808907093460371,0.7432499110892714,0.7013426136480849,0.660290098938652,0.6636164286052042,0.7030407042674816,0.7511853902967924,0.7860823279992479,0.8061430039368853,0.8112476420909751,0.8040202108670569,0.8031749692660453,0.8170190516725515,0.8728384692807689,0.903781470128414,0.8474448017031697,0.7664921119823662,0.6812135521383571,0.5993509167651363,0.510273668968654,0.4282439704966079,0.3712255963681401,0.4314738499054882,0.5164917354326604,0.600683370489792,0.6825831442842403,0.7615259478024925,0.7910618068335442,0.7487213621098572,0.7293609253662716,0.7174414644822067,0.7466026786449846,0.8046630336146638,0.8409524684782129,0.8486318412224876,0.8438101517425445,0.8419561642675253,0.8362899485445701,0.8358250510806637,0.8294889869523694,0.8315535855736973,0.8153342420636955,0.8119812209597319,0.8223347553876932,0.8301905848154825,0.8195172624123959,0.7918150342160855,0.7498694108244981,0.7112116699121798,0.7144573152945146,0.7595687158633433,0.8005755423510876,0.8419689343040109,0.8691840050796673,0.8771499827428666,0.8833422198484142,0.8896294163664502,0.9024293193212924,0.9415700717475366,1.0000000000000002,0.9881735534540452,0.914933676017852,0.8329800703070516,0.7440645955941376,0.6641109819198281,0.6363160774094203,0.7091055518470766,0.7914796027957423,0.8744159710500659,0.9301510062107968,0.910233944953468,No
13,0.8527011385477268,0.8645223640597699,0.8764986859336366,0.8497909474239673,0.7812116942628005,0.7048712320882458,0.6289131664679872,0.5504783165256997,0.4737435257593136,0.39323995545715995,0.3171263916386429,0.23682972709837896,0.1582961262390274,0.0822929082740757,0.040201247997889315,0.0913376572689461,0.16957633312945092,0.2504650380875521,0.32662935213383343,0.4068231218286136,0.4884565184009511,0.5684570566703551,0.6447093347900625,0.725758325091596,0.8071467758260389,0.8838192132588432,0.9371664625436747,0.8989257424531862,0.8396513324346121,0.8067019168194265,0.77747388363712,0.7376085630704077,0.6914843420751631,0.6369906538826839,0.5848036465184445,0.5698606556892984,0.615615015018733,0.6755893106643649,0.7348279456669302,0.7889932292708384,0.8124616347812204,0.8076340364101002,0.7975202552789626,0.8037521714990847,0.8122855620135689,0.8264427904325291,0.830359899654153,0.8229505469714469,0.8100336408056206,0.8340687761738608,0.8479712240309301,0.829803446265198,0.7664133415933345,0.6864961535918399,0.6076382356648811,0.5354860879254604,0.4698554843296357,0.40340023482910253,0.3241879172787773,0.2435449603857011,0.16747334797100671,0.08745655641998179,0.016035450563608666,0.00800711252590447,0.07421222393273624,0.14045887127737816,0.21974211449251474,0.3013746323365715,0.38156024178525744,0.4577273015300114,0.5386745498768029,0.6203251836579402,0.7019772657067567,0.7836256009953059,0.8641630409756178,0.9265431924352469,0.9057129278146014,0.8477021773710054,0.8042383786998881,0.775425731041254,0.7378370269051506,0.6918031757932823,0.6343397540335476,0.5845372868290277,0.5598287638637556,0.5972241220502872,0.6572233039916731,0.7225509760792566,0.7767768183292549,0.8127381732428764,0.8163569032430167,0.8048090130043815,0.8045736484653341,0.8180426556396263,0.8295281311283178,0.8339011893783912,0.8373139091685771,0.8312438133373643,0.8313032343785423,0.8570161474699585,0.8662179724893104,0.8296828147324335,0.7575912095269939,0.6818868628707702,0.6049547331524414,0.5265595397971436,0.4465934231978208,0.3703552845821868,0.2893913636687527,0.2109342827493264,0.13356074126979914,0.055199644275308817,0.0,0.03456384154919495,0.11430079755943914,0.1959508131862921,0.2776028952351077,0.35912868812578064,0.4368594619219934,0.5149828460091059,0.5965450155657546,0.6779168836090517,0.7548228899460261,0.8338284184086975,0.909653939152726,0.9233545130553288,0.8707765639534859,0.8255264345362747,0.7960299471574581,0.7592425651642134,0.7124748766425861,0.659365039833915,0.6061383318635132,0.5744874563097371,0.6006278050524148,0.6624404128906469,0.7258952054434928,0.7810901455679768,0.8184978250729997,0.8353843569878103,0.8483794533926841,0.8251501602019609,0.7789657115160327,0.7171583983691028,0.6546327839869737,0.6083390033472329,0.6328589233827833,0.6869199735343983,0.7381635359950299,0.7821632800437051,0.816803065295435,0.8479043777911157,0.8979792066437176,0.9597538926346718,1.0,0.9575317914109358,0.8777540426271118,0.7985233950320678,0.7217664382842939,0.6404380627039059,0.5592844404843864,0.4829115468871304,0.4031337675194063,0.3238618513523812,0.3047756313266112,0.3765032084237772,0.4564800396577596,0.5327164278557226,0.6119739692112107,0.688136050333803,0.7643629883590384,0.8293161743035409,0.8851362004618912,0.8953412946426273,0.8796468193753368,0.8568280078093562,0.8603098763844819,0.8596406646336734,0.8537695032708892,0.8473560499334207,0.8357541994868636,0.8267634628685159,0.8333270484762088,0.8424757298098149,0.8305549586616505,0.7931073633359904,0.7362580422961256,0.6744615781701635,0.6158119548859535,0.5979515318270165,0.6416540924416041,0.6960572396844715,0.7457636204394581,0.7849927984916629,0.8147437460179632,0.854333310703548,0.9143304398005798,0.96977989077818,0.9599496267189808,0.8915187617004836,0.8122035359039186,0.736071998902023,0.6558228537121287,0.5745067778379669,0.5008176218727773,0.4869813995250875,0.5577420734603482,0.6341876484006694,0.7119285435169647,0.7869099578039915,0.8536313085008085,0.8768394195412594,0.8706160094135025,0.8454968839659589,0.8430206358537313,0.851034024030938,0.8489808841445166,0.8430662558775002,0.8299806658342908,0.8203214003116219,0.8288703767378579,0.8377517790420681,0.8239197257371609,0.7818510317047054,0.7258552874782209,0.6648694429842372,0.6077390719467199,0.6140692039582005,0.6677123060275469,0.7213163308494929,0.7644015641514827,0.8027437867007872,0.8301797088559322,0.8690903561032284,0.9310442234022454,0.9921403625691408,0.9837375863807792,0.9134824913121059,0.8362847695636355,0.7552288006596064,0.6786639330536639,0.5991688733957328,0.5175399107110275,0.43833179201126776,0.42008690459435655,0.4917834168550903,0.5685109494881864,0.647507468860548,0.7245205996009003,0.8004848115768429,0.8692747257758018,0.8990683103867458,0.9000187496222578,0.8845759214492461,0.8868769080905645,No
14,0.90442213575509,0.9002470528857296,0.8985957044238757,0.9042155961593132,0.9067983065892552,0.9159155226241362,0.9028063556687496,0.8822416654888203,0.9010301017490612,0.9429440089184988,0.9568587449306734,0.9081599432282548,0.8424608549586112,0.7738225824534295,0.70449997729231,0.6316015075025323,0.5631688637902412,0.4917707429009504,0.41880843404363416,0.3505338549245733,0.27890538557023065,0.20546673260052067,0.13201396378994915,0.05872630659347194,0.0,0.019982919836937733,0.07727121536563852,0.14261638298280316,0.2158529245706212,0.28657405353569504,0.35553474622552744,0.4287590360718036,0.5012590025711317,0.5692309835987364,0.6416329770567863,0.7143155400235874,0.7823279215610934,0.8525913511702821,0.9171650082429984,0.9673559517783756,0.9773872371329304,0.9604033388051396,0.9313999454389328,0.8918320489967673,0.8430434353427423,0.8010911032307835,0.7959414337203043,0.8361430646487518,0.8826302834074264,0.9230445412498188,0.9423497067397144,0.9397059999551719,0.9271185583209924,0.9270330687503932,0.9323292940077752,0.9264850124160628,0.9043223852741812,0.8946677365767466,0.9206354009912356,0.9244436750178532,0.8707165065041624,0.8034576274679195,0.7355734129954485,0.6640364422462688,0.5960427897264644,0.5238842670641222,0.4556000826761839,0.3839908924905476,0.3113998340270761,0.24340614027724344,0.17113670560471678,0.10028425906376633,0.07291358428584432,0.12885637811017192,0.20186760254316974,0.2707091112241252,0.3415685927844621,0.4142395945694472,0.482276793018497,0.5544101493707481,0.6276276522591717,0.6965469670784199,0.7672513372458936,0.8373411998710618,0.8984136168350565,0.9381169344895492,0.9370596036280391,0.9136855468264318,0.8800517213739387,0.8388230197302033,0.794719127926653,0.7547992532429122,0.7520330385469245,0.7959506028786036,0.844700206688155,0.8787646261676991,0.8942163073372247,0.9044619178207508,0.8966205120221746,0.8917582790950163,0.8980562207233604,0.9004355130493655,0.8798491559300265,0.8633347760333652,0.8856829508674497,0.9029747944214994,0.8629479050748137,0.7935134707173133,0.7205258065319395,0.6521417370368507,0.5810233280440376,0.5125126649363245,0.4413499407181679,0.371559565278908,0.3017547423223821,0.22876226816349135,0.16087097249132626,0.11730993184701337,0.15565493629591334,0.22650665346921545,0.2945488664757043,0.3666293649962639,0.4378656124993719,0.5064065855166138,0.5795151738310644,0.6529676675732321,0.7264150385006785,0.7986360943623387,0.8651939702121154,0.9147811649232244,0.9297677143167488,0.9134068337143322,0.8877131088271129,0.8476975271107434,0.8021176569423739,0.7621708043886215,0.7473033350426659,0.7854394362538177,0.8327571290478624,0.8716154011973691,0.8949528467371612,0.9172208229867832,0.927155857744448,0.9127165627026936,0.8843572967660989,0.8438736850070852,0.7984897898702696,0.7802813229226031,0.8180700686754505,0.8617257677144323,0.9026127676383215,0.9295171959024832,0.948748279378367,0.9542565304978232,0.927719643886146,0.8719996787070206,0.8039230082722542,0.7325401772954505,0.6642700871195779,0.5913097597868016,0.519908974510751,0.4548541538384761,0.4483491026633442,0.5151430504174523,0.5812492762695876,0.6425330450026911,0.7114737503737951,0.7797166942768721,0.8470611724222132,0.9066975327508418,0.9298502755339516,0.9121778778072392,0.8881475601381865,0.9063849887599682,0.9236016914602414,0.9201656111523332,0.9146330520031734,0.9174537030587488,0.926230439332246,0.916726009045908,0.9016689254886936,0.8742063233607353,0.8287906405690015,0.783607962134123,0.7903354249152739,0.8349188388456157,0.8790768196109742,0.915698685121568,0.9444974695709818,0.9633012966190566,0.9588465182224092,0.9227770825068992,0.8658968274122318,0.7973360233664926,0.7240415182415803,0.6505889744192395,0.5774664393781388,0.5095995751699676,0.4750046806560617,0.5257529550376234,0.5974131043913786,0.6677822518955274,0.7369999069254649,0.8074080488347184,0.8733620210534716,0.9315915013999276,0.9552899551217542,0.93366702959883,0.9175176801902394,0.9379737414593796,0.9504402193820352,0.9506151191615366,0.9467316707383552,0.9536448437702714,0.9644141793438084,0.9612601352468456,0.9421265514044832,0.904330248686552,0.8598056647574372,0.8242721590577264,0.8472754196517069,0.893312994553513,0.9378398304728184,0.9700485553959388,0.992853519493943,1.0000000000000002,0.9801885568384704,0.9317253189243992,0.8694289358648224,0.800017420557168,0.7307482020894072,0.6575008414931625,0.5867751044414902,0.5178183392672047,0.444781863884049,0.3922200498987533,0.4298154706604269,0.4993591819111231,0.5726418140613505,0.642587273572718,0.7122617442157644,0.7855919614572651,0.8575760710653466,0.9234347732651058,0.9755595510969756,0.9815420328776108,0.9493284401348387,0.916210894691636,0.927775528166538,0.9435038873660532,0.9363097480698734,0.9266374533678944,0.9214623844696429,0.927180731841898,0.9320583206211954,No
15,0.8421938774893205,0.8547004748867124,0.8547609334413431,0.8475940175716101,0.8611840964250712,0.885530758878255,0.8964401633801766,0.8838879381841629,0.8857965347211301,0.8833406653115428,0.8234058897406299,0.7795902116784077,0.796338894799687,0.8414696525993122,0.8614327916625417,0.8408427765382611,0.7621449050849189,0.6789078530594671,0.5945160604784516,0.5055449702825492,0.4208612860534429,0.3377525081598607,0.24883087352668376,0.16135710994960273,0.09762370236273354,0.12376828351929305,0.20647685714704966,0.295552641497818,0.3838595310040776,0.4652337628653878,0.5521874507900222,0.6385806577802773,0.7201366063118781,0.801337386002261,0.8650088806949554,0.8868182706622003,0.8221721773326158,0.7412730230436289,0.6686303245267473,0.6092162824563796,0.5934903946560768,0.589213933353927,0.5537199167858251,0.5148093074257374,0.4973760789600015,0.5271452577377702,0.5783617519797241,0.6255896486013603,0.6706004436833028,0.7067497402704466,0.7182154034564909,0.7167079089735013,0.7272097391841319,0.7440371222084214,0.7554130792566085,0.7597773298601991,0.7667637391790345,0.7484840338787129,0.7327819407254941,0.7674228802714911,0.7878674242105201,0.7537691309163288,0.6729591589604142,0.5889084212098261,0.5053096129284711,0.4164176410740903,0.33337072661718303,0.268664307897756,0.20916060723330188,0.14811848958397467,0.07480978395825066,0.0,0.003640851307396442,0.08285938460218213,0.17190296136335004,0.259946074871819,0.3411570306200058,0.4284110393817085,0.5121440148627883,0.59577709393861,0.6768998058990257,0.7345173627987507,0.7243182998444937,0.7096776913479224,0.7085184515803835,0.6621408101796218,0.6075652655785864,0.5527951507317799,0.5010049566777341,0.45030459738754897,0.42978565568066185,0.4647137007467661,0.5219459641565171,0.574473507072756,0.6085280221250648,0.6068252854848448,0.5778765990577843,0.5541122576776905,0.5464125634763013,0.5727292834666389,0.6287425257079688,0.7034752065100192,0.7842206096110855,0.8620013184914526,0.9250472971764474,0.958858228075714,0.9707702069291609,0.9551098585000576,0.9197603717844984,0.8876019369997052,0.909937228070964,0.9385287595324798,0.926807578713784,0.8596043757888425,0.7749490149024865,0.6927088313988112,0.6044693316180845,0.5225784516268648,0.4364317392507944,0.3473136848282312,0.25838117850357833,0.18674042661560808,0.20789423917917185,0.2879770197434086,0.3700294167479485,0.4567958130723842,0.5380602705797186,0.6252085744181981,0.7064367581447857,0.7907251639568882,0.8612114425446673,0.8793311115342475,0.8580395591753618,0.8281826648168202,0.7883743535945009,0.7478168855036107,0.7001366940584923,0.6449443075815418,0.6138260439530057,0.6350411439516521,0.6714380532842774,0.7223607391406328,0.7723082327949957,0.8132680168878188,0.8527029396722099,0.8830295514557438,0.9089712864654842,0.9196654724967088,0.8875365047072801,0.8193485937936598,0.7372413943891694,0.6541003193920105,0.5746471835526239,0.5882510395156979,0.6715661824887178,0.7596257860303477,0.8408406397849804,0.9274254636954152,0.9881276017221076,0.9814599463442726,0.9662291918355994,0.9405798545207162,0.9542345871016548,0.9878262501027032,1.0000000000000002,0.9937542555796786,0.9703035396500944,0.9211089213701392,0.8519715330049284,0.7731780407152347,0.6902625912921672,0.6217173170831498,0.5802185595317229,0.5846090216748305,0.6102209733554675,0.6379039948019611,0.6412928526447885,0.6170085854118001,0.5717987339932029,0.5120444734219041,0.4674177772607799,0.4858763178136576,0.5407046854280484,0.5932176283584139,0.6452669521409877,0.7043076883065358,0.7467945035607213,0.7471994857925901,0.7635068169694033,0.7682361905210084,0.7207581708717992,0.6364681108745849,0.5531800884034557,0.4687962072894067,0.3954157298535026,0.4254400924201862,0.5119411477336606,0.5999171593684307,0.6811065771407621,0.7669998765733308,0.8366285478320008,0.8420866105762395,0.818423564842103,0.79140461755614,0.7689976294969798,0.7939537166633643,0.7983323024781577,0.7860170344894255,0.7826739011666415,0.7713304317942031,0.7567309691305053,0.753058236105713,0.7592686043635284,0.741300909509087,0.7035198072757984,0.6610230197098796,0.6136649105882344,0.5636861885209516,0.5391777303151386,0.5714673139291346,0.6064655027239867,0.6305064021736562,0.6352848894469447,0.6802203779545744,0.7518565779067572,0.8258684233040938,0.8994586268250144,0.9374756896216256,0.904152013979078,0.8432006160738528,0.7632365450860901,0.6820715925494094,0.5940288115597403,0.5226220025743342,0.5579201129474578,0.6452135663492682,0.7273070687959664,0.8125933275826895,0.8923384579763263,0.9344223886950408,0.9087557487529992,0.8812787350253828,0.8345372470453607,0.8491801239830925,0.9084249767968248,0.9293486107548471,0.9229432887673932,0.9384603759726828,0.9307655020193366,0.917212546699088,0.8927896440864662,0.8808114164561947,0.8827490837966632,0.8897891640341344,0.8801523164813811,No
16,0.8608345069603984,0.8334643360961256,0.8038096074304251,0.7620389304482762,0.6974234775951154,0.6263988680822596,0.5791324301640774,0.5514984646300676,0.5626923442522069,0.6031724079820258,0.6256391187779611,0.5996615200905144,0.5751829840677414,0.5978091477375691,0.6482510340391263,0.7006982855076354,0.7492727222196545,0.7994136938615197,0.8341601374587244,0.8519311753052539,0.8521914817331913,0.8457277737564806,0.8547547592947995,0.8648761097716786,0.8696917993569331,0.8787122598777668,0.8801422188190287,0.8801451551007966,0.8801509215094196,0.8820261683468289,0.8914565451192586,0.9007332092605076,0.903903014619605,0.8995189651750868,0.9091881237301148,0.9159100717476452,0.9149949791115348,0.8975952765328274,0.8665857279681426,0.8658063473806361,0.9027829048830708,0.9399589510412879,0.9363595027515788,0.8776096213865283,0.805616666958328,0.7320710556739156,0.6534215835132899,0.5719578152984055,0.4983318284127365,0.4188603219997449,0.3366986845089692,0.2545230903618472,0.17234749621472512,0.09037406859214904,0.02051290601173794,0.01944100603286469,0.08289535358330967,0.1627462599754208,0.24475632366141145,0.3207429541125757,0.3974139209679377,0.4794863968718554,0.5616580701139806,0.6422310983845474,0.7153971725369517,0.7961657566893114,0.8715708399695585,0.9242937243453287,0.9384596730178492,0.9219025782458818,0.9042834505957912,0.8898559156592019,0.8665358692845437,0.8341602374352002,0.7966454531745877,0.7530624818874396,0.7041310511233116,0.6539751952219699,0.6161635955152014,0.6021743030505238,0.6337594250832852,0.6825270351906307,0.7341652181803402,0.7860619982351262,0.8325829883994083,0.8655604835882371,0.8752055859066197,0.8621250918072281,0.8563581525850754,0.8598702104811833,0.8691350307152153,0.8832000341459623,0.8918973368268095,0.896451571881516,0.9037605545415592,0.9044415591499532,0.9092962689978654,0.9183466844485426,0.9231911736876042,0.9164581924489654,0.9221191932259784,0.9278447678132221,0.9284529418705608,0.9358266778676679,0.92468834045536,0.9000712465465817,0.8961897549753666,0.9292637346412164,0.9589630948446703,0.939149546541232,0.8770784295870258,0.8008990822148219,0.7275991134327915,0.6483015132160461,0.5750189438487694,0.4939696834773579,0.41179583329617403,0.3296202391490521,0.24744464500192986,0.1653228391292818,0.08779051456137421,0.01803393177007373,0.0,0.0640132641333071,0.14477517976049947,0.21805743926736326,0.29831158759248777,0.38047216012090135,0.4601838453987282,0.5336904220861429,0.6150537872125146,0.6960111036711123,0.7692684395525229,0.8485757465878996,0.917886042970402,0.9483582717754,0.932992197039258,0.9160324715381962,0.9073817098364836,0.9284842786661598,0.9453829957962696,0.9652361400767552,0.9859907663952472,0.9924856909233546,0.9499201186716604,0.8831502396045925,0.8083373320185065,0.7330030606115712,0.6511159079185389,0.5799745453355734,0.5986254152457178,0.6698488378667601,0.7491245403723168,0.8239734616703447,0.9015461673668871,0.96757474074584,0.9944700069697412,1.0000000000000002,0.9792166020909728,0.9376461380160596,0.93651736024777,0.9648045984121156,0.9719000929410572,0.9686192482242916,0.9655225812698304,0.9572315883658586,0.9568051546934372,0.96264881310717,0.9589610183885038,0.9530124935638856,0.9452986269556952,0.9430729093695348,0.9345590652317044,0.9298393655922494,0.9211909177692832,0.9121786932338579,0.8999524049573566,0.8988565503458001,0.88862974033321,0.8977333479734033,0.914525457766384,0.910705104830251,0.8955501306132796,0.8570635293296327,0.8141113365329042,0.7624315630611467,0.7106573720711151,0.6586635291212914,0.6521306940634792,0.6887504056552713,0.7433108202270535,0.7907492045998497,0.8319552486941157,0.8702761589291621,0.9010543423185802,0.9213314306795766,0.9378588459682441,0.9543011572877113,0.9719029013823552,0.9877321116477404,0.9515588463289476,0.882128641387877,0.8040856413900237,0.7293881725485716,0.6513430763308217,0.5693068200283524,0.50564257768388,0.5476205208876996,0.6217810744879813,0.6996909129764122,0.7743411723444358,0.8334577795905553,0.9086607769318212,0.9663025578841704,0.9798239586691716,0.9660826042401512,0.9275213988808028,0.9011115930291248,0.9272438800036421,0.9523664020766672,0.9521544225736404,0.9543227732123658,0.9451261162870892,0.9361244911647788,0.9401213179874369,0.938259854065212,0.9310404194145072,0.9230517203338302,0.9207883389206832,0.9192722627776784,0.9173132690946788,0.9119723883764804,0.9087871501255432,0.9038123232555388,0.8967620565172794,0.8889906312609581,0.8798155606879978,0.8826462397309063,0.8844493220708441,0.8746727738944171,0.8500355658858456,0.8098569532236577,0.7607627094849061,0.7132140937375919,0.6545356634337025,0.6217503952050747,0.6533092744844406,0.715735812080007,0.7111068071434661,0.7242696220083091,0.7680176017951654,0.8064253910083492,0.8447649409634437,0.8715820264007328,0.8934366530163185,No
17,0.6816344636363327,0.6685025261650597,0.6598924062860592,0.6526889720838795,0.6337801723741951,0.6081864696694228,0.5879536340987239,0.5585071056421991,0.5291489181477425,0.5227759344082323,0.5199395290358293,0.5621915126744734,0.6021062690447057,0.6480409629406965,0.6772910431722421,0.6938042830473652,0.6915846165654247,0.7017869589912706,0.6752275250674113,0.6791970053138785,0.6981878039937381,0.683285699963633,0.6903882784686219,0.6836965390961298,0.6848106773727656,0.6933976207258987,0.6862587333784984,0.6961084578744203,0.682710935932906,0.6819877300197792,0.6853869910334107,0.7096496513584047,0.7414482332722256,0.7566039454314115,0.7680981982984689,0.775820685538668,0.7712754456002324,0.7137901437425032,0.6052181306258722,0.5052356592910385,0.3965698430016405,0.2908731313663937,0.18821922522355014,0.08079232153060367,0.0,0.0005593733634690068,0.09576914493399613,0.20841143606022736,0.30652368065020186,0.41863669035649975,0.5322099539484317,0.6305996250956198,0.7410965338689861,0.8054608226171811,0.7543532305036384,0.7276701150397473,0.7310776709566262,0.7135659352053185,0.7134205472387705,0.7045795514120163,0.6951407542028165,0.6675854399300354,0.6405811564178756,0.6065644468608884,0.5667492368657809,0.5369381036801277,0.5292829229035831,0.5631130893211052,0.6196433475473424,0.6628034874242608,0.6913656953180705,0.7009203236960122,0.6827072671007293,0.6724437324746417,0.6828843466866759,0.7011813790581143,0.7223018269636792,0.7307031930547963,0.7399311541548443,0.7267992709405888,0.7239365076503188,0.7176983434157185,0.7263615287586379,0.7349830349348759,0.7276452997473579,0.7262428054586509,0.726307538163538,0.7341439700865537,0.7529989678485216,0.7686565447203741,0.7539424623452309,0.7341859271721094,0.6624722046789047,0.5600261471889301,0.4452042551439157,0.33579823248915863,0.2605558050983916,0.17248758917622986,0.082769458108225,0.0560996239949314,0.1357213927920804,0.23546541345593885,0.3434370381971741,0.4584424661796746,0.5678731791906495,0.6670636212358816,0.7474001549682471,0.7115815350333898,0.6838992679082261,0.6819831710921074,0.6819782817942812,0.6790144474535094,0.6604894503490848,0.6398206783355729,0.6145284087913727,0.5918811998094151,0.5604004761878363,0.5496014762901669,0.5648073781088958,0.605767076322334,0.6469678521323572,0.6909539168890326,0.70392906358751,0.7034060246901279,0.6884553566288911,0.6922290566487952,0.7057374185228475,0.7227873785046701,0.7260119822803817,0.7155677455190279,0.7224996491181721,0.7412908747457374,0.7618551244102165,0.7987388795741244,0.7966379241026806,0.7965951075110489,0.7948111183821167,0.7919997413346125,0.7858207197751388,0.7835842101993293,0.7593937692430512,0.7572268244502363,0.7587845515941476,0.7753903978124588,0.7724283659043487,0.7364294575962362,0.6977228944168092,0.6549291727238882,0.6101936872311251,0.6202235187997158,0.6461464075081795,0.6723551638718925,0.705739114781081,0.7310903676420177,0.7350853850237304,0.7351162951286034,0.7408304676608712,0.7565156229968952,0.7732032289019459,0.8343039273736403,0.8948385951063238,0.870670117609257,0.7844648635146738,0.6795734857098088,0.5853796466047592,0.5903186708529273,0.6832345583104781,0.7662136507653963,0.8023282332028829,0.8202538315579777,0.8239555751005092,0.8351772492657386,0.8170843851395735,0.7938618084513265,0.7956463135557033,0.7826590380483478,0.798936531819995,0.8014810044209022,0.8004145549499952,0.784649895284895,0.7920836551327048,0.8043294488319557,0.8168225777694751,0.7976910911899786,0.7867950700072708,0.7725202942802191,0.7429514650653255,0.7357269014509886,0.7501113245236342,0.7570514471055252,0.7468350492575353,0.7221764817943717,0.6771708022809642,0.6240322054047196,0.5923910368135354,0.6209135585059018,0.656447647442155,0.6953550740097718,0.7279554013751195,0.7508359897999771,0.7575415449100755,0.7719288942926132,0.789586842484939,0.7948242777374923,0.802353055419009,0.8345234477294556,0.9133443013374648,0.9877961018024232,1.0,0.9190010067878552,0.8255335295683109,0.7447546201137607,0.6497548468797341,0.5407119165950927,0.5146717330153079,0.6026588146941432,0.7012287223083629,0.7896822782441304,0.8408199987990232,0.8452951879044477,0.8314732982029263,0.823367570215984,0.8037855911292966,0.7713060167907311,0.7546891136552967,0.7422448607746199,0.7618898247194088,0.7762567254983092,0.7620206932891422,0.7747262620651822,0.7553093636177763,0.7400550324832906,0.7680370734979505,0.7505534939685625,0.7512278699140121,0.7566563551449028,0.7479879442002284,0.7598220280791863,0.7749566986255219,0.7596964576684359,0.7538566461557488,0.7321886124718611,0.6887380922287809,0.6438533798882577,0.6026951266275513,0.5813751997042451,0.5979199920730807,0.6398183638476698,0.6539443195050807,0.684490469547669,0.7115948113922479,0.7129977566751355,0.7194077789890465,0.735070808309485,0.7507510498946184,No
18,0.9045213795908376,0.9107914593444564,0.9097179338694268,0.9152305004309508,0.9163290738522748,0.9136541492265025,0.8946010716638145,0.8956428745089979,0.9234930040834268,0.9377855267065726,0.9418015552522508,0.906257995868717,0.8358373689930952,0.7544900350980276,0.6730966614297988,0.5977927992221861,0.5194134699014831,0.4377355336159051,0.3585943987009149,0.28385533137436514,0.20309482354345745,0.1318044190083859,0.11150127337465664,0.17004121368215194,0.2448790474720243,0.3260644292292848,0.4023782465596989,0.4796249130668678,0.5603299852554312,0.6252925507567934,0.6946354781173526,0.7753039583979743,0.8454939817386569,0.8919024086075923,0.9052273047748512,0.8957270439815067,0.875951734186985,0.8449026160808221,0.8116304171167231,0.7899127160629286,0.8082205275316655,0.8567399765151186,0.9049872206401132,0.9224999154701896,0.9092538276853328,0.8913202936416614,0.8856863894911869,0.8799744799982262,0.8840906169393586,0.8893523150604327,0.8893389500540692,0.888584911542598,0.8839923236287491,0.8646716558646282,0.8558120183214467,0.8832936432169202,0.9043805182496132,0.9126436457997372,0.8763753899695149,0.8034656041703133,0.7276786845578948,0.6502206733319659,0.5698295778643304,0.5027999599952874,0.4475389886331945,0.3930493165223111,0.3382403049622388,0.2760014481991581,0.19992506934926516,0.11923665369480717,0.05600351249313407,0.06905172829799132,0.14385344443412473,0.2178289332565414,0.28865600214616804,0.3568682414195471,0.4321415709232087,0.5135729056444006,0.5925165111065908,0.6673602595882165,0.7455934465594932,0.8123085755462783,0.8578446777764056,0.8819800793169857,0.9055552540118644,0.901785121520178,0.8728340212033742,0.8375846685453515,0.8049482745710265,0.8020668274299619,0.8455074431250728,0.8996753105251197,0.938376760059382,0.9435441614981838,0.9325394181404196,0.9201675823469084,0.9170693132908242,0.9221768493283656,0.9233297533110808,0.9293027747115641,0.9327270655579508,0.9315332048073748,0.9028018297673432,0.8687468494537289,0.8650708084224416,0.8931017488746623,0.9097013478758166,0.8988540599935754,0.8456035437654995,0.7722902731978393,0.6975008058419699,0.6162976436902537,0.5385659711568086,0.4627034515053706,0.3812019773795005,0.3009275223356908,0.22674209389016864,0.14622725581575624,0.06881657276217434,0.0,0.0020789269343719496,0.0695382273302172,0.1485088208024904,0.21738553838196767,0.2851046742095197,0.36389316541106187,0.4447173625966022,0.5190571633151523,0.5979902205857727,0.6719738330678934,0.7422793317007556,0.7976412900223105,0.8358003752435944,0.8580638382989859,0.89515161675925,0.9383502200465196,0.956011595390166,0.9307127052197808,0.9503151155269196,0.9902221873463352,1.0,0.9651955696134068,0.9236723943294975,0.8854505590394867,0.8618417149676413,0.8251680235631026,0.7755987623557375,0.7112796563030589,0.6379592541668679,0.5583694619807457,0.4840560282829433,0.40434817206578544,0.3456210346092786,0.3767290167637117,0.4415255262213521,0.5108582334021611,0.5919814502935271,0.6737020982188059,0.7532131896993718,0.8261838261073692,0.8969586752029565,0.9475678399400989,0.9397816569208599,0.9443411335990772,0.9287027253834936,0.9023779934299352,0.9136914074069176,0.9468828285237476,0.9604019572502912,0.9609627446096528,0.9568287598066866,0.9507841701962604,0.9447805076691425,0.9482145381162272,0.9584591782615328,0.9738609047301002,0.9798377998602892,0.9609807206629348,0.9169882337424891,0.8625680924889213,0.8304231502301312,0.8552515075077837,0.8892408320598192,0.9211595983557552,0.9389632509271484,0.9362090304136014,0.9091419208858976,0.8875216609501252,0.8467510097725751,0.7852693813658224,0.7102899401125214,0.628784742411917,0.5470655554606333,0.4676068603441322,0.3951706955914279,0.3761942483987543,0.4486049770051516,0.5282204469471218,0.6026512434458827,0.6836039792309366,0.7622218591308437,0.8370317275582639,0.9109505279150916,0.9651267636662454,0.9544187602871064,0.9400731275562539,0.9261050076541854,0.9021093060521174,0.901749604565816,0.9126238326227504,0.9175232505166504,0.9187810514984668,0.922965827567054,0.9142792734505448,0.9110018734658945,0.9161013042684156,0.9261651136565332,0.9413454044068896,0.9496273066579592,0.9341869786649782,0.8908774572144919,0.8416202685222888,0.8248837385734206,0.8509900167439391,0.8856854015690051,0.9130665412061968,0.928222493963502,0.9365027614615252,0.928652949377776,0.8914790517412549,0.8306803298105264,0.7591913773896051,0.683510598945073,0.6173100064525247,0.5470641630124115,0.4774611024256917,0.4912180212935052,0.5697336687576718,0.6485459590945316,0.7235017740550654,0.8026740371626208,0.8762229514687384,0.9470538830275484,0.9908924249245666,0.9747694056926048,0.9627510048275122,0.9459299562280742,0.9224062788842567,0.9343248084595374,0.9479481898232036,0.9466487787558818,0.9486546213101908,0.9414900465724144,0.9392236656718908,0.935480805903865,No
19,0.7230739126298718,0.7161294195374632,0.7217082197382108,0.7347789579231541,0.7362184757646519,0.7264673708776859,0.7105770838958057,0.722463050808196,0.7494867054066112,0.7294122921050759,0.6561374658751079,0.5767293916781211,0.5006778138294792,0.4197772752872668,0.3419836320418048,0.2645289141674477,0.18355634440944826,0.10731774680585904,0.031496278473823865,0.0,0.05710350934570785,0.13781642600417776,0.21927053916695927,0.29839653149054746,0.3746911318356368,0.4558052383623703,0.5372856330443634,0.6187663141886952,0.7000435544785879,0.7768874417843139,0.8405362581140832,0.8152445114530609,0.755900940721457,0.7067127419152974,0.6626355442057863,0.6241015183197147,0.572185543323775,0.5191076353633122,0.46366399651629103,0.4121885054364805,0.4019936409186355,0.4513706098012078,0.5147202863952085,0.5783085147272109,0.6415076125598502,0.6940454855520704,0.7198823349904651,0.7177923323868403,0.7077767097643457,0.7073525837359851,0.7132323997288572,0.7096672757225924,0.6896222634987641,0.6902963322817228,0.7192327053348015,0.7350140631909128,0.6822746962183401,0.6077624053898982,0.5294060038853579,0.4517711967889366,0.37420925635915897,0.2929360574945568,0.2151345811233472,0.13790413544227464,0.06438752612855758,0.047305496121229584,0.11528821479448892,0.19195120769217244,0.27048892969742955,0.35192401780469496,0.4334047278269893,0.5148557732797511,0.5938314128455506,0.6702120565238008,0.7475935634883253,0.8170385776305895,0.8533247675191848,0.8001238572819319,0.7431041973600192,0.6960776337690688,0.6552355413625021,0.6098952372727298,0.5609622185663676,0.5062498596678221,0.4535006852786863,0.41552992025277935,0.4340706938536367,0.4918903610160337,0.5561225552250726,0.6232662360843595,0.6802571356462481,0.7222968342778864,0.7447840592757031,0.7485305933850681,0.7427498545362108,0.7542844912908857,0.7666895165542467,0.7625782844186335,0.7413007277352055,0.7465341020537632,0.7747551081997854,0.7772371654147998,0.7173416283278764,0.6421409928137323,0.5652677086201652,0.4839918060704418,0.4025111252870843,0.3210678224695225,0.2422979638813775,0.1662480825661763,0.10507622329669007,0.12926802935535808,0.20625346914766876,0.28661911893585806,0.362317069296296,0.442741696723848,0.5242188525139757,0.6056995535119067,0.6870330878433457,0.7643313983349842,0.8421668119886543,0.9057406981505008,0.8734909715247463,0.8066267052347109,0.7537176087035737,0.7076106740508445,0.6675975005977015,0.6252674265820297,0.5744977950266439,0.5193181949545342,0.4628636361200151,0.42314041693838894,0.4471548888965322,0.5090395929323195,0.5727326877104908,0.6312131889694301,0.6758744249868279,0.6807022754881189,0.6782822314815202,0.6949032060297602,0.7053066429296571,0.7083682378300251,0.6753788035090778,0.6216631977928577,0.5575443181690447,0.4925156032892264,0.4724180562036708,0.5200433092025698,0.5780053699166552,0.6282235537837706,0.6733300531901565,0.7140827950445396,0.7593591203102166,0.809527014385861,0.8712408739570807,0.937912378480674,0.9955895663159642,1.0,0.9329983713214582,0.8555408665359341,0.7783089206915581,0.69698035795643,0.6155005562721303,0.535870134561067,0.5089370728522957,0.5740783406361434,0.6514666049562943,0.7268052916367841,0.7928788449611153,0.8109934729635617,0.7894140921060975,0.7705598471062314,0.7859569224531548,0.7891239254819201,0.7828997066778622,0.7710884875523171,0.7708279069428807,0.7683221852814021,0.7484075747466656,0.7118205582082857,0.6578745871060472,0.5955195485042333,0.5306702583345949,0.4700608086168661,0.452772336789226,0.4978510133923038,0.5504793688943939,0.6037953606277475,0.6511814918032743,0.6932050466216455,0.7348703311453311,0.7892110912536134,0.8555548302467348,0.9257363938430708,0.9787180431906366,0.9488511790797842,0.8752572511265042,0.7942340521828697,0.7127538287396153,0.6312731187173208,0.5497960661984092,0.4717501956695485,0.4614289330637527,0.5301375994445816,0.6083863978541775,0.6832304290790725,0.7503056429597925,0.7681396274892893,0.7395576970574909,0.7119077374436356,0.7188506763358014,0.7357408902801459,0.7344481986706983,0.7309562988704692,0.7319818581268702,0.7417450679208388,0.7436708663455918,0.7216261461174733,0.677150803750697,0.6177004502087817,0.5547574818695418,0.4884705561284961,0.4348462753317708,0.4540356905073413,0.5094885410314842,0.5649975316713285,0.6168006744417054,0.6623457070427111,0.7025789161512159,0.7485503207663333,0.805405092761595,0.8722050702602306,0.9429151953647978,0.9984159702263018,0.9712085444573488,0.8953833026135791,0.8199365691451879,0.7515142998555553,0.6744431249900877,0.5930072447475483,0.5131589073957599,0.4825996190789323,0.5479442009111335,0.6233808379121561,0.6987208472288349,0.7607165609006556,0.7785991470319611,0.7552253917111941,0.7401474800767958,0.7559049856216935,0.7634288759420245,0.7584862506336552,0.7508522399854822,0.7409593631315501,0.7441065176030931,No
20,0.2211229711095668,0.26289517857048983,0.3562574742397384,0.4318159335048231,0.3684931331791729,0.25602554442238024,0.14005262661355955,0.03884325155158575,0.014654742137905075,0.09609706444320487,0.2071165580380709,0.300821444848693,0.3887870501793076,0.4936615934259785,0.6000656902691923,0.6863617925251488,0.7476942636706609,0.7783015560468418,0.7752684754223265,0.7523566592548345,0.7210157464721405,0.6619709931137154,0.5961821378027947,0.5335570121657001,0.4789551477894394,0.4753342025502869,0.5272135237317603,0.6022484453672226,0.6700734193638351,0.718832895554057,0.7462649937136736,0.7402298966897427,0.7255368460270231,0.7262161240446563,0.7405964481758964,0.7532228434760242,0.7608870772203113,0.7610336644550526,0.767414237311697,0.7788874365587994,0.7598577562981461,0.7275291201206624,0.7085872748976558,0.7208214261044898,0.7630425641372609,0.8058626134614508,0.8262550271932589,0.7726133794120669,0.6669208331679317,0.5593904433654155,0.4442933960845799,0.33331647256439423,0.21607944963713652,0.1237346566986357,0.13201266747235296,0.2332454309754537,0.3425930249290228,0.4569901173467468,0.5686868973866144,0.6716216177060725,0.7465400909305395,0.8033603378001777,0.8184659042165996,0.7961138624324073,0.7702374099790612,0.74991430467646,0.6992724921773252,0.6414701272418424,0.5802435555179768,0.5359683406600761,0.5386815637362861,0.6027070908144148,0.6794709116319755,0.7510282132119435,0.8022981406931708,0.8318342083759621,0.8320364965793798,0.836288305947051,0.8285535652289275,0.827939019041052,0.8392872207177929,0.8340594485539219,0.8486178379368448,0.8593377120083288,0.8583922466817349,0.8410105517605015,0.8017243704022183,0.7874983822548032,0.7867191141790348,0.8183562406066236,0.8782701643295391,0.8847863144408068,0.8650849385854777,0.7696795074425862,0.6524939187700167,0.5422521005829641,0.423310726152784,0.31252738463895513,0.1970537580902989,0.08555501119513352,0.0,0.030053534964406662,0.13984641689217092,0.25359572380668016,0.37122882756908826,0.4839748107847188,0.5968941602301889,0.7059818882770075,0.7827442158719524,0.8405897322830129,0.852462351339268,0.8282032684282115,0.7917227711229047,0.7561774969435522,0.6997087497436412,0.6339203185617852,0.5669495106529276,0.4944064355257143,0.45882822895068603,0.49459562283534103,0.5610324587986475,0.6334079923007452,0.6980919522901612,0.7675005384987177,0.8144108111920523,0.805790599495797,0.8012122141065898,0.7816617831298429,0.7543634061141615,0.7512646836148202,0.7584261400045347,0.7507363445570001,0.7445615046910959,0.7560316045953521,0.7899053423996838,0.8102205542258818,0.8256235099618858,0.8137172010251659,0.8159038998749439,0.8291200198731037,0.852563602434905,0.8665303352652254,0.8671669218274176,0.8516675667364484,0.7834656573392982,0.7193125925544321,0.6482205323725552,0.57156879047779,0.5463839956029339,0.6043447310180285,0.679150544857797,0.7464374457738671,0.7997946504915543,0.8385473643189347,0.8802024937352027,0.903612125014336,0.923330686778684,0.905026724757453,0.8505585807031446,0.7860692414452268,0.6824652052289055,0.5582196069919765,0.4478183155307871,0.4512816913951965,0.5593282439137903,0.6739017392442257,0.7863228181322248,0.8941807661116101,0.991540645655718,1.0,0.9499517330589876,0.9331509400568136,0.8714494773411103,0.8528554006237012,0.8726210433177357,0.9030503513396946,0.92039108197721,0.9111256276378148,0.9138952310044406,0.9155145886959192,0.9046811947172304,0.8971112901745446,0.8901292634241633,0.8870638905077994,0.8895907221995949,0.9010208329003381,0.8951156661361193,0.8707038549237223,0.8249218516737318,0.7668849307632444,0.6902625984617536,0.6089201051631186,0.5957498938749506,0.6445076924292743,0.7112692450965574,0.7633403867320556,0.8102675159774777,0.8363746970247248,0.8619497448188103,0.8766622744509514,0.8765813748886666,0.8460011464141544,0.7894367632465555,0.7119174526247516,0.6098518733516225,0.49147543667037,0.4567602697089686,0.5581833957417839,0.6659014166890799,0.7729936724817175,0.8776028617414213,0.9348042351421832,0.8959121991969479,0.8668229694304888,0.8311034697571675,0.7843831251747013,0.7725443502431388,0.8018022796595634,0.8263368672583198,0.8274774718402087,0.8154184077417161,0.8150500591886747,0.8173300629079199,0.8165499987395459,0.8031029527138327,0.7881744838346068,0.7794966784086563,0.7882910749393193,0.8040341734236822,0.8090792736978552,0.7754068720333525,0.7336002601379858,0.6718020980044503,0.5943645501575245,0.5318537849648677,0.5471850681808368,0.6142861645353626,0.6850847638665281,0.7426079550707385,0.7878527861011335,0.8135874104289016,0.8279798026667216,0.8404059952748444,0.8228404805894938,0.7731116748549405,0.7057867393201263,0.6076855452004559,0.498781019885993,0.4475564666215539,0.5276646152146696,0.6420861621064184,0.7512743109327769,0.8544684326174421,0.9076618110616876,0.8657684704598596,No
21,0.7752729078045739,0.7247773417775409,0.6685340712743963,0.6017222882321009,0.516528695738482,0.41306446608102704,0.3103136499186543,0.2386842314625364,0.1892556647143553,0.20626940883840691,0.2627092909860673,0.3397122700954007,0.3426560131835377,0.3670136630763907,0.4478601538911091,0.5344175281247017,0.6281999432798955,0.7218491250823913,0.7815056672789701,0.8078192391260877,0.8189912278834997,0.8192025068091029,0.8192475678725133,0.8258588284790838,0.8410848444107994,0.8525125582894626,0.8638562949093176,0.8644039804152991,0.8761949605941193,0.8693063787734427,0.8191878861460533,0.7784744643784443,0.8079156956670359,0.865792966624253,0.9050235645494557,0.8663617523647424,0.7533336661211729,0.6236873238344822,0.5008509759639779,0.3695457448174469,0.23397773062446925,0.11321810088953076,0.0,0.0033328817942250843,0.12694343669486896,0.26037030918322435,0.3818053764203269,0.5175530828517503,0.6409043692743097,0.7679290121164342,0.8599731152089212,0.852884843770457,0.8399008549302356,0.820705820584394,0.7919978900896365,0.7501644619702024,0.6900272247825465,0.6246422693532332,0.5470820587232175,0.4649617828039245,0.3894346590920015,0.3535946732125126,0.392331176152902,0.4769977576616546,0.5657312504814039,0.6573512729699655,0.7424890030006406,0.804182194139206,0.8189790499485436,0.8192025068092379,0.8192027725996374,0.8202105934414341,0.8370651496388888,0.8587228896859704,0.8641590727176567,0.8724850422077428,0.8860457389189107,0.8859225511304962,0.8740532513128372,0.8422479953830679,0.7927502536149826,0.7929620705731657,0.8440040902821279,0.8999880886414391,0.9149256704498984,0.8402298260074725,0.7161653883389185,0.593884581864093,0.4610567782663244,0.3397648055578317,0.21235792775403567,0.11923587204520247,0.03645574162019072,0.07089899543132416,0.19999805267835136,0.3378711802857301,0.4702763993631729,0.5913159916056641,0.6995915327108686,0.7987648139727588,0.8698003430976367,0.8488441528932049,0.8412074228227775,0.8271155427290116,0.7992026354751753,0.744150849312164,0.6748365161163647,0.6062138947113653,0.5267963023435476,0.44489069717620655,0.37820697233479583,0.3564735665909118,0.4022063030051784,0.4915754294410935,0.5844761349515961,0.6755736549674975,0.7560914940905219,0.8093598476823463,0.8191447556572893,0.8192025068093818,0.8192025068093867,0.819271642636902,0.8270026337203791,0.8410704492949028,0.8417670340270198,0.8508751644919151,0.8637180341294215,0.8620688647627768,0.8280989810687251,0.7729220106769312,0.7649686663253084,0.8095728929536499,0.8716664675358432,0.8997668565830548,0.9584948604681984,0.9628954201473028,0.9358157225666912,0.8668512204289089,0.8437137625189117,0.8924259159432868,0.9409137143959069,0.9362537243024868,0.9247265340861412,0.9269452145602126,0.910674582160798,0.908793171013174,0.8959251405716624,0.8915097832775151,0.8747379084633167,0.8732163817366017,0.8817514849435297,0.886163947070425,0.8766472559035736,0.8515628782349971,0.790088061519552,0.7117262126939345,0.6200672958201583,0.5273269757519374,0.4447729314160398,0.4592069804338843,0.5292126340721794,0.620318423616506,0.6970354660490119,0.7579147955625833,0.8227576125865461,0.8713151969286326,0.9017782879422273,0.9174077909510204,0.9244393374183186,0.9676806284959514,0.9871519119160777,0.9017181437546684,0.778907839491934,0.6521647390141441,0.5428121042788456,0.5791104804831138,0.7103351136908378,0.8303553159822483,0.9445057882976612,1.0,0.9781960716189492,0.9482810790382832,0.8833207077354399,0.8704468342356702,0.9118072326802024,0.9505943031715752,0.9415608332394712,0.9403971453240368,0.9364989769167624,0.9196793685322088,0.917417567150685,0.9032159808199941,0.8839328767170525,0.873284149335535,0.8780971184269459,0.8877329969154619,0.8736111150307289,0.8533765868434582,0.7887314663340788,0.7054865031861977,0.6143149325864092,0.5213883561433934,0.443422434407454,0.4653393043232095,0.5412123271477993,0.6295084838472076,0.7013586085834058,0.7646424046542166,0.8176332409679636,0.8597358609696011,0.8774232646186055,0.8946900584705726,0.90681256023672,0.9532852711415544,0.9878616536470624,0.9229681849736532,0.8038581084916703,0.6821331241564912,0.5666917743839561,0.5993997643198123,0.7216335159118081,0.8425993462516379,0.9555603993868343,0.998990529029164,0.9750320595974068,0.9378383824856008,0.8766393997580708,0.8727689835201988,0.9136000438289172,0.9395953611112259,0.9382024890124718,0.9211457106297604,0.9179631040474976,0.9149594175136592,0.8972760486040889,0.8857714518967241,0.8763167676006476,0.873080606142417,0.8730525776245681,0.8681718932856297,0.8458594762485276,0.797112661165297,0.7131706026683649,0.6256264939008154,0.5447589415950524,0.5342371633321368,0.4587545927939347,0.480364684915708,0.5671928592917461,0.5859564231543426,0.6060833835415269,0.6838029802975543,0.7472083816471651,0.8049263681575898,0.8439195010661109,No
22,0.3662587294534045,0.4206342423005845,0.4996081700026511,0.548868760757524,0.5515217472622325,0.5019645338029737,0.4288870897038046,0.37985867630923775,0.3706576482499435,0.4102659857519539,0.4678880410334447,0.5248574077280586,0.6010143152275205,0.6671728613088994,0.7189303985586786,0.7366376390035929,0.7365491039573949,0.7284153548998569,0.7273895191618827,0.7281376360639074,0.737977189366769,0.7437111276216577,0.7461028836424688,0.7378069996404311,0.7132019148504594,0.7117334435222895,0.7469810511280903,0.7862324606015678,0.7843585437354836,0.720379953978765,0.6293441188028155,0.5342227750857604,0.4359346587490316,0.3321129007794881,0.2286211516612824,0.1335221031028273,0.04034941092953126,0.013321063852296476,0.09121274788600676,0.1861326064612301,0.28849574415394863,0.38207965240405817,0.483216875878872,0.5809265384629991,0.6771462651696412,0.7749542204355315,0.8484504108614106,0.8147056893520108,0.7640386641962758,0.7369059407344143,0.7202137905125745,0.6884175607677945,0.648927691280927,0.6018083639668779,0.5668534556947338,0.5893534957796842,0.6505320580674601,0.7104062376052933,0.7545264684112467,0.7761235025616775,0.7697875686624467,0.7563801431379857,0.7423358888050753,0.7428927158511718,0.7533541704775983,0.7544133695889015,0.7344930401427006,0.7151296389426347,0.7239420162183221,0.7627150555695683,0.7927013574027606,0.7665363637875748,0.6810692170622159,0.5782296267078888,0.4833980788071719,0.3842061097773937,0.2875714022456528,0.1902428282081856,0.08898365794532602,0.008845410809197094,0.01486610881873096,0.10558380994290052,0.2027776153637475,0.29942150510025645,0.4000445650215483,0.4938535852051815,0.5965878812011451,0.6926278960636811,0.7904117997503259,0.8671640090964587,0.8295971788489582,0.777116403955745,0.7442721966605566,0.7255359475317558,0.7042367394658398,0.6610491284000826,0.6172040779633086,0.6022818927282839,0.6273554428656072,0.6768124796335859,0.7150989497127938,0.731974094279481,0.7410761461939634,0.7414957218670761,0.7415065707427739,0.7441937412002015,0.7546342281700589,0.7624195948925288,0.7611872966455441,0.727749312821268,0.7197017490329263,0.7347388397358954,0.7734856082988509,0.7910575633733992,0.7531013890340945,0.6705230724884197,0.5781432808033566,0.4787906132765756,0.3840481793176889,0.28460067921633536,0.1807418601394335,0.07761528146544272,0.0,0.025850429061757385,0.11597337982001,0.21603273407473125,0.30980681341886473,0.4122639100162295,0.5069889344996101,0.6064990061328988,0.7071833525410198,0.7870729680436976,0.8521520338492434,0.8158845684254146,0.7639782651853582,0.7411737882633533,0.7243697733714793,0.6945621289780599,0.6501735330716183,0.6153000923487457,0.658750132327629,0.7080230164431669,0.7463698872098552,0.7677584342136516,0.7875394356046395,0.8217140575791568,0.8876316337573102,0.9592802998593648,0.9592004770500676,0.8781578329793185,0.7852550173311104,0.6843388079029287,0.5846650405622309,0.4901092351026579,0.3971896413392833,0.4148671930114134,0.5062194748349358,0.6087300747078828,0.7026248001960111,0.7886936945941547,0.826943913376659,0.8289786355139491,0.7991104748984308,0.7658972201262493,0.7758441810701509,0.8049113106776009,0.8090407061983182,0.8023413554985452,0.7917869732300079,0.7889465859210729,0.7854504196202072,0.789202578599703,0.7847477184760531,0.7711271372414144,0.743820701995227,0.7038652380227008,0.6522928015173066,0.6492003878028603,0.6919029204045815,0.7380378184453809,0.7617595308248093,0.7833089568236039,0.8082436180815897,0.8641783569261323,0.9401074812550064,1.0000000000000002,0.9675930615285672,0.8939901920115123,0.8116299324556022,0.7370126167645188,0.638822878939308,0.5401132230890167,0.516632174652875,0.5980643391542755,0.6951052159530235,0.7797525544388569,0.8275884642477702,0.8260285647418091,0.7966809632657481,0.7583778320274328,0.7623420393445521,0.7918805289379403,0.7925075682099659,0.7959846679908689,0.7915446283789447,0.7899833930687776,0.8012882162120605,0.8161841865329922,0.820977045163797,0.8037935752123662,0.7703084701089284,0.7215189376850362,0.6511389195092774,0.6183173454454545,0.6548285451688611,0.701996983667214,0.737779797234172,0.7649385913410571,0.7854797304973691,0.8199013146403049,0.8880255316170038,0.9607943856763509,0.9624664721502654,0.8818391439304036,0.7878054332072641,0.6859502176337788,0.5925281171907468,0.4909352424071322,0.4112752854678921,0.459398735193368,0.5600170250835952,0.6530036621636282,0.7454094285532336,0.8155235471662234,0.8409137674915164,0.8270542195461157,0.7866238103991139,0.7558989383186148,0.7681006569483284,0.7873187866570437,0.7859056011526395,0.7832928638224919,0.7758872176934208,0.7689936903069114,0.7700313821909301,0.7689236172253968,0.7793807813549638,0.7744977144213887,0.7532296199003061,0.7066754024329659,0.6480720917488363,0.6080974729529676,0.6360768466185689,0.6826725034477751,0.7271583556510193,No
23,0.7567571301624553,0.7635280349300436,0.7780825122676199,0.7880085346122193,0.7973954250352772,0.8142488771414876,0.8218360583395378,0.8081979003915968,0.7978962029866684,0.8253202733903756,0.8604677646140485,0.8757572259885059,0.8743504715084999,0.8192224951734565,0.7466321216571256,0.6784947246357057,0.6060193068686576,0.5313322494845273,0.4575392660113228,0.3897377827415677,0.3165807582037331,0.24276876952312945,0.17885479847133226,0.1700877007855397,0.2334985949157425,0.3037823719323501,0.37361501947493136,0.4475868450281936,0.5156408888643901,0.5881609139746228,0.6586592256612903,0.7259518983021901,0.7878247094915233,0.8461587221358192,0.8936773181129046,0.9048629548803774,0.8928505483196744,0.8582380065292335,0.8201426709802199,0.7789204742593575,0.7457706929798432,0.7587720558635226,0.8046630907159035,0.8574278530132461,0.9049744354265492,0.9398255585862502,0.9466396175433222,0.9404798676792848,0.9445555916275021,0.9580233485307018,0.9653513020129416,0.970171203365109,0.9546334768838588,0.925871876200702,0.9195723348051013,0.9370347427367036,0.9329745117631124,0.9006129354452356,0.8343988390474767,0.7636288627653974,0.689165149227199,0.6195982986821073,0.5488801983554704,0.4742540079198766,0.4010716528481789,0.3332679968785549,0.259575348381598,0.1902062904003005,0.16293165597012793,0.2161070424382835,0.28087565184219565,0.343298855720357,0.4120934309193044,0.4863625559289228,0.5557860706047498,0.6256086313683752,0.6922251273545824,0.7542258804805541,0.805850096817544,0.8220511087518328,0.7973716520699005,0.7641399326393091,0.7279376443947382,0.6792448471345532,0.6304920388394984,0.5823853468171801,0.5395827751972576,0.5338871203594971,0.5704696798125036,0.6200640974942292,0.6695329399085613,0.7016775530049351,0.7001728682502685,0.6901108665949429,0.6834230425154858,0.6853884755474612,0.6878777764405765,0.6881485626761209,0.6737942194540049,0.6509621162654976,0.65509200484231,0.684622634857509,0.7042088984897296,0.7054980684275959,0.6516853055179691,0.5840785749687606,0.5102384648240436,0.4379263146480644,0.36967151000393306,0.29547684784919503,0.2208123100338185,0.14932430367805485,0.08045946847613318,0.010926510202139415,0.0,0.058879077209117885,0.1321010519643796,0.20139178916595304,0.2724022388245847,0.3459331157464959,0.4136646743661906,0.4845558047970692,0.5491039134304404,0.6094575195903958,0.6636030035269015,0.7026384453740654,0.7125150982359701,0.6961535703103,0.6625161616492384,0.6166568944337242,0.5724188948293943,0.5398239357634375,0.547939604884511,0.5941775578369085,0.6499118462392496,0.7011503954808628,0.7424725334771124,0.7682668718796849,0.7743932745177834,0.7822368555695229,0.8009562458951648,0.8164384255104552,0.8383391158690426,0.8302050292634612,0.8131808085194937,0.8030217733169532,0.8019522361557198,0.7853403446724262,0.7527455506885165,0.7067036293049191,0.6538904675126403,0.602413516593382,0.5748943227003164,0.6065899724314149,0.6531856460970985,0.6942581579052346,0.7258656220690501,0.7399016838291833,0.7352261728352868,0.7067098815685785,0.6596658600828852,0.6028843355120886,0.5398687297540498,0.4759172049143626,0.4644461334364957,0.5263749011275817,0.5999596052591022,0.6679337266802147,0.7338408110209526,0.7699415796467616,0.7447011884549076,0.7250894503193995,0.7038339009794649,0.6817178084490111,0.7020912252627171,0.7155509455271581,0.7183935703983583,0.7202156011702318,0.7173656607174567,0.7136422780030541,0.7169137900849704,0.730041944664762,0.7313029605388569,0.7083286927523381,0.6615201422051727,0.6125342117913751,0.5713027536071767,0.5849257943009302,0.6330720709509904,0.680283976577155,0.7283136488836847,0.7703821312858653,0.8041748227024484,0.8358152618835949,0.8545829346415889,0.8456201520712493,0.8013251409570953,0.7451176649092855,0.6817050941611816,0.6147875179927652,0.6090300121347986,0.6766117048734889,0.7444964165273916,0.8181979544385974,0.8873847273337404,0.9498799670979272,0.9759549465659356,0.967664222684558,0.9656008895285114,0.9548083178332056,0.9727183969846309,0.9961719923276352,1.0,0.9945283123121712,0.9917310962035024,0.9784366641562836,0.9721334564100079,0.9807245873236512,0.974064351012434,0.9421032805071538,0.8989847203981965,0.8458736119754596,0.7987473333812917,0.7854866332717393,0.8250775072791495,0.8658829436242993,0.9018704135595172,0.93020394886306,0.9368087130613711,0.9268624146459636,0.8883281713019796,0.835954192986169,0.7768341595394955,0.7131951380467739,0.6455415618634791,0.5757545239143332,0.5667596083078635,0.6343156989871607,0.7090008255293122,0.7836802490568552,0.8556470125393988,0.9208260888834564,0.9541161731397382,0.92606567381634,0.9000461882180649,0.8778595968424304,0.8405470846170314,0.8337303478251453,0.8506232192544482,0.8449750122218614,0.8307555996795023,0.8186193527942948,0.8056331566218248,0.7937242673681332,0.7910571367375224,No
