,0,1,2,3,4,5,6,7,8,9,10,11,12,13,14,15,16,17,18,19,20,21,22,23,24,25,26,27,28,29,30,31,32,33,34,35,36,37,38,39,40,41,42,43,44,45,46,47,48,49,50,51,52,53,54,55,56,57,58,59,60,61,62,63,64,65,66,67,68,69,70,71,72,73,74,75,76,77,78,79,80,81,82,83,84,85,86,87,88,89,90,91,92,93,94,95,96,97,98,99,100,101,102,103,104,105,106,107,108,109,110,111,112,113,114,115,116,117,118,119,120,121,122,123,124,125,126,127,128,129,130,131,132,133,134,135,136,137,138,139,140,141,142,143,144,145,146,147,148,149,150,151,152,153,154,155,156,157,158,159,160,161,162,163,164,165,166,167,168,169,170,171,172,173,174,175,176,177,178,179,180,181,182,183,184,185,186,187,188,189,190,191,192,193,194,195,196,197,198,199,200,201,202,203,204,205,206,207,208,209,210,211,212,213,214,215,216,217,218,219,220,221,222,223,224,225,226,227,228,229,230,231,232,233,234,235,236,237,238,239,240,241,242,243,244,245,246,247,248,249,250,251,252,253,254,Target
0,0.5308695190187697,0.5783486979694855,0.6277305261896703,0.6696508253894847,0.7203718800756612,0.7628410269625246,0.7781371487157379,0.7716409833110603,0.762507400549374,0.7592377574628243,0.7685726957684363,0.7607269823628425,0.7518287123897055,0.7680863365305267,0.7976518096904873,0.7964040109734557,0.7443397819964296,0.6726213960595665,0.5971178710328283,0.5236334741701568,0.4457206682124263,0.37269546373521606,0.2957232924120152,0.2211361517542628,0.14614975172294042,0.07210010700205027,0.024899503839773574,0.06994441458063494,0.14798524947983505,0.22688034381203515,0.3054636044376534,0.3791177821814141,0.4553071100517253,0.5341701325978401,0.6130657583124722,0.6919613840271047,0.7706648617168917,0.8283836585535881,0.8105980126998377,0.7955129219790787,0.7747813007306791,0.7479660345793265,0.7083629951962355,0.6588273261811729,0.6151925831283954,0.5963727775053828,0.6256350079935405,0.6776172514059674,0.7270322130300367,0.7631740221401179,0.7749357682417689,0.7688730874780201,0.7574585422910017,0.760546625293722,0.7505596767375627,0.7413786838455202,0.7649392022136358,0.7939551519724547,0.7959793252891322,0.7591593173759806,0.6884894842126755,0.6130168674674533,0.5394968884341952,0.4633440311524316,0.40012440527145465,0.3373227194939816,0.2700554908970764,0.1950283638974948,0.11742479865113666,0.04538855663491115,0.0,0.049717180512831805,0.1274595598617858,0.2004579538975293,0.27762306240060586,0.3565086308340166,0.435404256548649,0.5142970519158537,0.5921729235907763,0.6649958575111982,0.7421688031966752,0.7926993751136769,0.7873371433545623,0.7747531315873969,0.752615790242967,0.7165870006746059,0.6686956179393807,0.6258165909949774,0.599031811349246,0.6191113969627239,0.6693713156985536,0.7199034693137755,0.7611157027348555,0.7778139985388249,0.7718434268543056,0.7642878232244238,0.7655001017724997,0.7600181511665952,0.745852412446124,0.7649261053353013,0.7930482286847701,0.7961142865319665,0.7645197684241459,0.6951915814321915,0.6213378962367998,0.5472875817370989,0.472634737542483,0.39776931733122944,0.32000484641676497,0.2471813299833219,0.1696303783450145,0.09520268335069293,0.025760298803264917,0.015628622802080442,0.08270218490113168,0.1490593819537639,0.21647613497012172,0.29494676414082543,0.3738422534662934,0.4527378791809257,0.5316335048955582,0.6105291306101904,0.6894221836745839,0.7654150133139542,0.7938629430042535,0.7910444188300864,0.777409664797173,0.7497812149301816,0.7082773369430527,0.6581936538228127,0.6151172051388719,0.5983307385928432,0.6295786667321629,0.6804351201184523,0.7319133849259988,0.7683262802087937,0.7899916832562103,0.7678765936447697,0.7225482333754999,0.6713510360701801,0.6325725442652158,0.6510346324964663,0.696031353871161,0.743868871867165,0.7811627568837781,0.8045137899931815,0.8201157448618862,0.8526022921152826,0.9186106408949224,0.9724939886503332,0.9422660685500258,0.8655852271498222,0.7893500450923338,0.7157382800846052,0.6371635867736437,0.5582680957695417,0.479373952080073,0.4029243562761328,0.3869609920378656,0.4565776023343559,0.5294700254176438,0.6052134120784299,0.6780601029494089,0.7525770261283896,0.8182950518228157,0.8358964554762279,0.8271912198582864,0.8107705769492165,0.7791665885574585,0.7806039925294707,0.7956906153199629,0.7860591883615377,0.7910814675294394,0.8006882565516705,0.8023897976187898,0.7812584536898887,0.740248305966707,0.6891307879989966,0.6416433226526616,0.6386099197276788,0.6797502139277795,0.7260010107084288,0.7657967076072002,0.7929265355460439,0.8098733750261463,0.8370935712670667,0.9006778012375857,0.9660828648303758,0.9728574431757668,0.9026587886195516,0.8238620228087167,0.7483460320874084,0.6741180265372485,0.5954069270004186,0.5165113012857859,0.4376292811011281,0.3651941370304311,0.37381212423274257,0.4477062121631209,0.5206292106853975,0.5980374520156116,0.6709252460398837,0.7460357459067969,0.8134080610536826,0.8363949946583006,0.8220650580314849,0.8104183166925961,0.7796181401352852,0.7737941097731783,0.787314158075601,0.7835411683235304,0.7898521055848943,0.7985058375770765,0.8002159661285121,0.7846412402540074,0.7492411330266223,0.6973087053868222,0.6463382802936591,0.6302504457753794,0.6689438275490517,0.7187350360333465,0.7616925876395205,0.7927698536205886,0.8179276862885737,0.8361334097395393,0.8851277418777957,0.9554277643635344,1.0,0.959026306197972,0.8815568337860672,0.8026624186242249,0.7237667929095922,0.6448762364392334,0.5673041988859476,0.5066161826410743,0.5337556287475779,0.6086585474007115,0.6816573986180846,0.7541002707907666,0.8217538987786813,0.8465468270859741,0.830213820520085,0.8159728646947809,0.7844240477649606,0.7803982193891841,0.7937652465408779,0.7886132107014626,0.7836775437480781,0.7908238237018331,0.8037322398485441,0.8016357836974574,0.7775794681219311,0.7357155925172528,0.6854492307098524,0.6355998163642355,No
1,0.635019421954338,0.6980966227056208,0.7323338118848753,0.7343941851874763,0.7382351743747247,0.7510457946150512,0.7631262824269013,0.7707932187812271,0.7520728006675824,0.7441034491783322,0.7811737889823812,0.8032314741682985,0.7562571061884685,0.670510780297984,0.5823917799395176,0.49074866222141794,0.40244060255913816,0.3102375425092833,0.2219189311436348,0.12926046772114094,0.04223399051378929,0.009173154499276914,0.07908162851891998,0.17033830149762952,0.2642768031722705,0.3526256415906551,0.4455919807740506,0.5400842446123014,0.6294991774756514,0.7209298462273964,0.8132801260453683,0.843840791374065,0.7820036628544599,0.7268210490624508,0.6863557494366116,0.6397837909478278,0.5827956616097497,0.5154125547316214,0.4463223895571201,0.3758519397814429,0.30344446657168456,0.24300796975977454,0.2429214587598808,0.29983287150286564,0.3746247145876246,0.4538146236054422,0.5334342115972691,0.6088641919959691,0.6799846969514062,0.7199156813503359,0.7186998073112932,0.7223899508819814,0.7384190667817757,0.7530846460153467,0.7706690869205998,0.7680231534804333,0.7443303519889499,0.7595753289359174,0.802513094562345,0.8092991939625113,0.7409136773431161,0.6542154089221653,0.5654454932459098,0.4719010029243459,0.3835926737087968,0.2907613828424215,0.20116180810499584,0.11052771547154416,0.02562372934773693,0.0,0.07018940456780154,0.162138372601749,0.2568840108995544,0.35165738161013305,0.446430752320712,0.5412024296449379,0.6351674471760059,0.7234695293353242,0.8083039270238951,0.8049532650743951,0.7441854674879763,0.6990022103034382,0.6610581499656399,0.6116152009043779,0.55369142164093,0.4834166090835478,0.41205631671623577,0.3425224371302066,0.27761534552217004,0.2543033451879918,0.3037563573615686,0.3684828675708184,0.450727244508289,0.5297423000242619,0.6048371436779522,0.6688225439133278,0.7047892802610148,0.7094534908937112,0.7168962233708075,0.7407819910219718,0.7536276747845906,0.7587502855835825,0.7403688925317068,0.7246685410850685,0.7584551303271511,0.7911555980443402,0.7636576888097745,0.682808430138158,0.5934563088521901,0.5054000523172396,0.4155299109829108,0.3257220957261523,0.2350131046532792,0.14526342488887511,0.057457721778992776,0.02803459206122716,0.1027489175963251,0.19088403963911135,0.28474976619113657,0.377034826985437,0.4657731284004941,0.5600631120407055,0.653646124213337,0.7418383611000096,0.8313379420218568,0.8475832562950637,0.7806483757966229,0.7231735154992591,0.6840215938988404,0.6390244587083366,0.5832725554900831,0.5151752994420696,0.4469553146284283,0.375834822036108,0.3238762776156684,0.3626086152958336,0.4369145706799528,0.5062209134385026,0.5717478089359816,0.6350985259546859,0.6833862233796265,0.7262442521712539,0.7690908492714988,0.8420148868058476,0.9245761946793408,0.9943343810685658,0.9763657203727096,0.8931491027846835,0.8018121152438423,0.7128146777158234,0.6184240532401258,0.5236508773732952,0.4289170366975045,0.3459826500752784,0.3687563430372157,0.4548609437716071,0.5464359392046937,0.6346396519799794,0.7223157972177011,0.7971763336008416,0.8222942336266675,0.7975397644487224,0.7600876427551052,0.7709622343197692,0.7872469152440741,0.7845457288646683,0.7769141815331478,0.7567932638646012,0.7377716222608831,0.7367897928148442,0.7231503178558755,0.6796674980887331,0.6143694954085889,0.5345179187746673,0.4537643694132668,0.37536635383020334,0.30793606884666136,0.3205563572337621,0.3893687609749256,0.4583997017263986,0.5281300447750433,0.5948613813699936,0.6504026143504854,0.693738393707683,0.732263781388034,0.7858560389253261,0.8601151065713039,0.9415498733699978,0.9894987076330056,0.9324764806178248,0.8431735485281927,0.7511511038750517,0.6623483472081383,0.5680481373842795,0.4757166996472792,0.4104020324647925,0.4569908987654375,0.5443027427274406,0.6354497350436047,0.7219082090999261,0.8044932297532427,0.8518544467145678,0.8384832514541704,0.8029947607892532,0.7781722975637876,0.7954654286490689,0.7976324477945903,0.7807088586327221,0.7638539074039111,0.7486807209688192,0.7470479158081526,0.7507238151470789,0.7251421095986559,0.6659680071132369,0.5935811746691148,0.5176440207913012,0.43712174568893947,0.35370071234839096,0.2861994683325194,0.3022363228615502,0.3713774219494689,0.4461919634195993,0.5154237611369418,0.5814995315253088,0.6428847691299174,0.6916157627303846,0.7346357505952409,0.7815634479707013,0.8529068302250135,0.9377322940355468,1.0,0.9637265838542378,0.8780073052880814,0.7844114541665571,0.6957092026323034,0.6033611806758848,0.5086192955568832,0.4196670250376583,0.41842777278000004,0.5007998301875926,0.5932382908376602,0.6817148515801378,0.7678852857125585,0.8308347247688544,0.8319816847454488,0.7992128950379317,0.7701261908033622,0.791093279917472,0.798400999683419,0.786914522039505,0.7735851861757043,0.7620978700076045,0.7581972068799824,0.7588753914343876,0.7315545832390681,No
2,0.40786682063444013,0.3471825680126361,0.28508710894594896,0.23145004792956225,0.20021787159836532,0.1749729246482199,0.14864457866783776,0.12683160294350726,0.09543265533895452,0.07754338275296113,0.048541805958771216,0.023129916522450444,0.05176874026599676,0.10456770077514156,0.16302742687378358,0.2128578508495058,0.2332876269254751,0.2320862841664775,0.2300274449619024,0.2194903449768031,0.19604510266671624,0.17276478608590384,0.19934028421813169,0.21312632108750876,0.19973006267596294,0.1858831610941255,0.163214777389749,0.16023315884867706,0.21836817181597026,0.2842449111248828,0.34951486757978434,0.4096893135712469,0.4759552329479146,0.5460382425248331,0.61245624898338,0.6812352967769659,0.7462301897357162,0.7415763391270336,0.6785952637025325,0.6210277641883084,0.5526926428064762,0.4858157222896804,0.41853903706355067,0.35291112367729593,0.2876899258683978,0.2243753324243936,0.16863374607169845,0.13410776864438936,0.11397694270534366,0.08104977146644743,0.03600271736032945,0.0,0.011766631491109791,0.061206857389236376,0.11729162727678387,0.1732732841151925,0.2178485463771389,0.23675098888167345,0.2453715246782633,0.2462359478826965,0.23537628645221045,0.2075566282054384,0.1963927871703441,0.23477881716900684,0.24907420481961395,0.2415176542485957,0.2344950749900272,0.2159908415188545,0.24651296875620576,0.3136108121689549,0.37961571893874857,0.4492411881980747,0.5189407151492527,0.5828891757986441,0.6434455640903789,0.7095058024765177,0.7767596869284261,0.8258100507446741,0.7880318906536271,0.7206214974841956,0.6546278042888523,0.5935990881856217,0.5309934727352743,0.4625627646946531,0.3969798411054719,0.3324766678426565,0.2708421208015921,0.21845580680466534,0.1874707342989853,0.16363439161035542,0.1267594123564414,0.07999302080549542,0.04428725978411974,0.05566536457453841,0.10441249167133547,0.1590619952957648,0.21424674986488124,0.25148142912006466,0.2556353972824714,0.25128498337290184,0.2396779091759249,0.2244181175636899,0.19192363974984386,0.17874266464886912,0.21234136561316094,0.2170071073386952,0.2026660769037747,0.1838653237666963,0.16154463206548295,0.1811281621106441,0.2455516292378803,0.3145226634177805,0.3807330832200493,0.4508328262757169,0.5189099574665113,0.5836805564196041,0.6448023751886893,0.7100556410046224,0.7754254102288283,0.7860342331996055,0.7314114381770715,0.7404883597092058,0.8067533606771957,0.8724901493666994,0.924275352900266,0.9000815535549274,0.8377461038170122,0.768722388751772,0.7027095422077392,0.6354649075553571,0.5749889236173801,0.510282615087861,0.4405663762304519,0.3737197494275779,0.3054989347643333,0.2383248076704241,0.20428816027447014,0.21679948513994707,0.23165443314238646,0.24364559179319345,0.2383970368358665,0.20926531689111785,0.23047194961042816,0.25237847386166523,0.2646203245389116,0.27430981432391605,0.2767706681304134,0.2643083589641164,0.2217452498036674,0.16868699849879046,0.114370477614971,0.07213703900691104,0.08935815271906078,0.13396513117442,0.17391271525895924,0.20074497430060934,0.22095627901050152,0.2688640404639577,0.3301404819306861,0.3943130792956724,0.4617265248121063,0.5281300633161248,0.59645413940752,0.6629038571452548,0.7302290695890976,0.7975156383093804,0.8644542361429237,0.9316509351392694,0.992741251627378,1.0,0.9425842392692256,0.8768421168640319,0.8079290876150571,0.7397603583550458,0.6730610781248431,0.6096369257294034,0.5496183081166768,0.4802913241358748,0.4124527932386135,0.3452503640648312,0.27926453361213777,0.2572270162479493,0.2618404954329188,0.2681861381600732,0.2667364758173245,0.2323036801619731,0.2382380814175165,0.25814920751668136,0.26230532803571593,0.26217509344356205,0.2554937514117841,0.2397847311902745,0.20115780819479975,0.14937145523777814,0.1001124342951828,0.0495704958613038,0.02685766032491044,0.062099552314380475,0.1048415870065933,0.13545787367329865,0.15658769003353354,0.19824877897749227,0.2595741482987306,0.3168378755632484,0.3774241465684097,0.4432586472195954,0.5122531558180743,0.5782773384337949,0.6477547843716538,0.7139693255182733,0.7810039048670852,0.8470701582640658,0.9113907928022272,0.9423498746328388,0.8977808358100112,0.8322658271376533,0.7660082612313026,0.6965682111255695,0.6305545840959885,0.5609113859397159,0.4909662408962545,0.42492476020864456,0.35549543631171154,0.28753520741903915,0.22475453337154594,0.20324237865777106,0.21481872658613746,0.2293154456540813,0.23796149565297145,0.2121452730235902,0.2072434907698157,0.2328997784118973,0.2460609617190994,0.25257461663151304,0.252846524000274,0.251266899230832,0.22199519572959625,0.16908296654078636,0.11410547906803692,0.06451022806511086,0.06733511001849067,0.11308921932637185,0.16254376195321807,0.19653733420963185,0.21966573248293808,0.2538088264481584,0.3115465740468293,0.3777661866858149,0.4442385974463827,0.5102001161396965,0.5792342043667407,0.6452424093820124,0.7146690735907322,0.7809766799454738,0.8419361765399402,No
3,0.5698240130288016,0.6155692147125328,0.6666956859820804,0.7030143859278147,0.7352024728131302,0.7710978810575683,0.8041542896689745,0.8130720904607774,0.8147295914514178,0.8239302186437444,0.8321318712343909,0.8237368573780647,0.8008016263677616,0.8091929059991597,0.8429366201154348,0.8583633883006877,0.8304856486514732,0.7604006864053175,0.6887669209726291,0.614259650734461,0.542557676319274,0.4655755501699032,0.38818988330399706,0.3108039603315088,0.2336101870760757,0.16107517096520296,0.08719004741955083,0.015099900729219184,0.0,0.06137865688487909,0.1333143994598447,0.21041420056467466,0.2877214528672345,0.361330019527388,0.4341464239439875,0.5113818154414215,0.5886113311138074,0.661373593820266,0.735035723645716,0.8115665927410577,0.8821476828364628,0.9239717501290028,0.8882376291184232,0.8528792114976551,0.8261014376155299,0.7987456585572862,0.7662005079936248,0.7320351018699817,0.7210700033033678,0.7488118514249714,0.7832354880714737,0.8004118582185652,0.7944396006625521,0.7974170717272727,0.8087094856103415,0.8164313254129035,0.8051620323243581,0.7896822270651521,0.8040297093005867,0.8333016500520875,0.8378871970292919,0.7886324740039775,0.7170461305672405,0.6453822540955932,0.5702406100669574,0.4989361288387376,0.4222157139360973,0.34738829301359275,0.27561785726373234,0.19861445324299287,0.12258908962170698,0.05294290600189133,0.01921064982823595,0.07340505787364437,0.14581261448145966,0.21937448447292876,0.29667875926748444,0.3740646822399735,0.4514506052124613,0.5288365281849493,0.6062223975416451,0.6833210045217191,0.7553497874291489,0.8292887774793528,0.8891427835608644,0.8740847108489277,0.8357928053702831,0.8104632115828391,0.7845156031288928,0.7510931718930803,0.715678101678766,0.7036089987560358,0.7264693018936922,0.7654265070284499,0.7989561548672061,0.8004948565299034,0.7994584117469868,0.803987506549248,0.8097126824113778,0.7972283140263513,0.7765150778605433,0.7844361996743899,0.8154681118728332,0.837003975635812,0.8194692249546852,0.7528660150982951,0.6807053136561992,0.6096886527682684,0.5341067549916713,0.4622129542208838,0.3875539087753287,0.31025323106515257,0.2362222893230597,0.1637924055087332,0.08709211820162832,0.031407807953333984,0.06362602288298769,0.1339032639317026,0.21079939551295926,0.2858968443767055,0.3574661932377765,0.4343998066794349,0.5117655803028843,0.5868017915128093,0.6584093816357554,0.7353237976105919,0.8095704681792705,0.8802032915560377,0.9085340810303822,0.8675935375674321,0.8361472247366816,0.8103639751724521,0.7815057944257376,0.7470557827591332,0.7196362824396633,0.7175636383693819,0.7482677581318088,0.7834974654794177,0.7890836156263271,0.7856534380390284,0.7915373394334323,0.8097789089135564,0.8089393488881992,0.8122220337651934,0.8201426918862561,0.7999973576264588,0.7624742166941841,0.7445634027468048,0.7686952549925617,0.8046389588129955,0.8326370239131814,0.8573948412447377,0.8891579596786121,0.942160526291466,0.9773055248754122,0.9394565473150948,0.8708148793917753,0.7981633037242787,0.7209392626564809,0.6435533396839935,0.5661674167115055,0.4887841706729635,0.4146523662202008,0.4062712564021459,0.4759230577474959,0.5470387359610888,0.6233491643871855,0.6952156428940534,0.7586122017683327,0.821486842897898,0.8722297732559702,0.8672998560804096,0.8497679780960082,0.8190588310184901,0.8045844050363694,0.8259821852820844,0.8317662416272905,0.8305043896971186,0.8244835572917272,0.8284127407822536,0.8205104160837592,0.7882545889523079,0.7481016274849598,0.7299887628075444,0.7557977541535866,0.7929468364704472,0.8200951453322826,0.8441597360688996,0.8769233015245753,0.9299920374670906,0.9789248163495884,0.9597783452502904,0.8916719588484341,0.8174350115989139,0.7461834806246898,0.6705858785210882,0.5942716284122332,0.5232960581776084,0.46474929009777,0.502340858610497,0.5770033134441864,0.6482575519893009,0.7208198653768055,0.7920383114173885,0.8577971765248106,0.8775058531051448,0.8640122166059488,0.8432268866384945,0.8168741380124024,0.8249034929361321,0.8392668082544471,0.8362921538035145,0.8268143069234634,0.8194904945222171,0.8226789808406961,0.8178010886517885,0.7918477248853807,0.7536708455593092,0.7518634272434156,0.7864887344810795,0.8210167429260223,0.8474778135334581,0.8738018176991472,0.9096214191183616,0.9625275765615308,1.0,0.9612482085946408,0.8922515835104091,0.8182614838569991,0.7429486840134657,0.6715466406730902,0.5947198812494418,0.5173757509542701,0.4504385409659749,0.4688321457689574,0.5431655676168473,0.6192312320870402,0.6903237620674215,0.7648356038146106,0.8357516503206356,0.889888505102259,0.8889977720455008,0.8758729684716023,0.8464033332890833,0.8245560384976008,0.845107682928473,0.8561303589171269,0.8489513807264454,0.8407886655110047,0.8361826164455171,0.8353967841870239,0.8106683180151074,0.7719558554930507,0.7536148708034766,0.7719017858944618,No
4,0.8655466740661464,0.8563087961026865,0.8552744548969093,0.8738176356468506,0.8715390931940263,0.8154420893564958,0.7296679773504802,0.6431560772103371,0.5608589715832162,0.4726341033692125,0.3883719495383973,0.3041529274158321,0.21668346429142327,0.13517090850887936,0.06964566415464613,0.09816980279140776,0.18077049839014248,0.26960729637570546,0.3576686758081029,0.4396487596071232,0.5267770371738607,0.6156905326766702,0.7042814567638906,0.7863675047190977,0.8398234568025673,0.8336387048110272,0.8076760840363175,0.7771229351512683,0.7353124222843104,0.6851085643118449,0.6568721460767339,0.6910622061647156,0.749265349442537,0.7957381089312645,0.8254132019593685,0.8354921911358291,0.8360228892991894,0.8396128201446911,0.8309492548893809,0.8437158762700769,0.8703816697720492,0.8767797947501288,0.8288639341104735,0.7489230817971879,0.6652753640294009,0.5794543309909139,0.4967816001755077,0.4082674751206754,0.3193516967584209,0.23205447547790806,0.1596774100624605,0.1602923616795786,0.23611792672728704,0.3195626304765229,0.4082677579095826,0.49712037432972106,0.5821297576662396,0.6656417768799251,0.7542350678655052,0.8367498477043509,0.8744964133347184,0.8619761624999827,0.8438556589446093,0.8088856803928262,0.7659829971788601,0.7160931843060108,0.7003455141188955,0.7399955790163977,0.8002700607086091,0.8502690576579335,0.8812891458126657,0.8938240870637046,0.8950206212202096,0.8988441321456135,0.8894969554460406,0.8955821262409496,0.9119076870333632,0.8870221596009358,0.8126084557912716,0.7309065105829735,0.6502541173874019,0.5804109392839365,0.4955571510515926,0.41099405521350496,0.32709521009303866,0.2387991918120126,0.15721889565487102,0.1086524007597598,0.16417500737116394,0.24550790727573524,0.33310225010719763,0.4218708874918041,0.5058834982045242,0.5903615950873511,0.679179765358662,0.7678326502652817,0.8505365349765865,0.9079342516426128,0.8971346198047707,0.8807771618823821,0.8590774638344165,0.822773198814613,0.7732975332054259,0.7357005819944371,0.7441144330770666,0.7957191193264994,0.8520535099321,0.8839910409574687,0.8902590275372757,0.8876285483581139,0.8923169652683371,0.8875058807472496,0.8598812753686134,0.8689297875496023,0.8619617642470925,0.8120041245282419,0.7296532337987351,0.6471643395442617,0.5623722343597173,0.4805264006931027,0.3935376033520357,0.3114418351034776,0.2245830771724888,0.13777311785334534,0.05641286963172265,0.0,0.046069308308847146,0.12688245956182054,0.21478757878097288,0.3030909794158045,0.3853104765414113,0.4719612231281358,0.5608677335825507,0.6497888862379682,0.7372349072938893,0.7912813426916185,0.7931816230729907,0.7809035868345064,0.7550210410896039,0.7135557781029265,0.6599970847186749,0.6349943672399796,0.6656356036091318,0.7229750695540227,0.7794282989453567,0.8243625045924109,0.8048789152299483,0.7518041980848473,0.6928425348944263,0.6854076518437109,0.7329363248241829,0.7765272281353148,0.8038126380691946,0.8204531774960002,0.83218848523378,0.8399997054819135,0.7854835707074017,0.7045758633283115,0.6168177969401429,0.5279236904499407,0.4430990265278689,0.4160445791775544,0.4899036395225969,0.5725818725171372,0.6577016155917648,0.7393471255433575,0.8174481548450434,0.8773069061075058,0.8980455435483714,0.8983011670731958,0.9109858206624633,0.9255176530110087,0.9179791079857405,0.9181146975754227,0.9161336364891994,0.8986100894235038,0.8572281083523448,0.8003649949571576,0.7704090083996404,0.8085099090185164,0.8531370718719944,0.8871588915679736,0.9105860761725022,0.9302492155124188,0.9715764526510772,1.0,0.9411620792118879,0.8532559969536769,0.7643343899422381,0.6755148348773405,0.5997385695118784,0.6184952338883867,0.6985480940123929,0.7843867438920251,0.8641850376547526,0.926371880254936,0.9411592089952208,0.9340171228341364,0.9313626850770336,0.9340677741687022,0.9223407099225212,0.9196790821150841,0.9074430147743761,0.872020698267834,0.8173711955205172,0.7592712394565021,0.7585859137374062,0.8055711755006538,0.8493857991001736,0.8793988137604511,0.8958817984706549,0.9197561091619556,0.954612058838984,0.9135760736743704,0.8337598037733995,0.7462577931354102,0.6611285414395776,0.6343624376506438,0.7042949693645499,0.7872018262686673,0.8689506946897585,0.914230146204818,0.9110121797120756,0.8861752702256913,0.8732857169606969,0.8770409969248971,0.8675453986797037,0.8684205868309314,0.8598550271210157,0.8347803661909872,0.7950082998754864,0.7395535045407013,0.6970063263968147,0.7268547317997134,0.7773580849034107,0.815144975616197,0.8432227884322645,0.8681239904644416,0.8907515024641974,0.9025914114519296,0.8392490814789961,0.757962397934606,0.6705085034615181,0.5820819352127988,0.517586915842515,0.5599954760165862,0.6447670046333822,0.7270470132285243,0.8083787610665787,0.8801842110485731,0.9117043000916664,0.904335428882714,0.8919992694545953,0.8941743762744019,0.8941580838089341,No
5,0.5887225976019221,0.6012643846861079,0.5931173106835226,0.6019318028074083,0.6117633899963417,0.6136065549286027,0.5941955188741384,0.5817213730784947,0.6101440959392901,0.6473894389174373,0.6348996278279067,0.569546884122937,0.4955301738365094,0.4195391995102833,0.3432215744000997,0.2681566729765774,0.19675992670158413,0.13123333714164798,0.05690929605523931,0.0,0.029488853223991637,0.10381221690006692,0.17803515563076688,0.24193751032172986,0.3061883710577073,0.3833753274125291,0.462919751578134,0.5424333639381951,0.6191625030783032,0.6940901990401009,0.7696194727512509,0.7803911047607841,0.7190846365642374,0.6593418469198111,0.6162375631156565,0.5793294794344561,0.5396730442227426,0.4883992981916212,0.44862177450171736,0.4617595333904418,0.5093255587495766,0.5609229426361184,0.6100077256796002,0.6366836299239651,0.6251868351079484,0.6241405245299496,0.643861153618098,0.6651533397919533,0.6780036416100133,0.6679813281391875,0.645295267360255,0.6532091627626266,0.6830797936905675,0.6733080850867703,0.611773554943255,0.5340684588460891,0.4548850755148446,0.380397199974301,0.3035858542275345,0.2293372893895136,0.1529716470760224,0.08135876737093073,0.051155176298166787,0.10608506039666277,0.18283167295021485,0.2571033842611751,0.33618497343618897,0.4157426611870305,0.4952251522338978,0.5714087096059128,0.6468331116930683,0.7262298582933486,0.7993038040071423,0.7951003811463844,0.7303488205251594,0.6750542458062874,0.6315705267815528,0.5918775575455788,0.5443369273721368,0.4899228621438343,0.4384798737021185,0.41922086235847855,0.4535094240042343,0.5044854710200537,0.5565596721771346,0.597456280706393,0.6046258479557101,0.5947488323205588,0.6024903410511842,0.6178490924679212,0.6237209666894876,0.6063363608083407,0.5995847274636938,0.6318008283150578,0.659812179407864,0.6294823429833574,0.5602912199792298,0.4859889273573154,0.4104104917453133,0.34295094074365506,0.27479692974728465,0.21143955955797175,0.1357568948027822,0.06252929322118518,0.006616124657340738,0.0329592830882649,0.10895227439266207,0.18849825727858271,0.2680565382466762,0.3476148192147699,0.4270887899441129,0.5031581641422356,0.5786925020004574,0.6581164790448966,0.7373972346579325,0.7920701838925222,0.7506921533734807,0.6870497408005953,0.6335964199254405,0.595299362663573,0.5557263446777654,0.5040831244554487,0.4500024137757679,0.4056172635539324,0.4107213340513125,0.4571048858576994,0.5099927753857669,0.5591448306803266,0.5950286139862839,0.593975168937833,0.5964693546593773,0.611225558533177,0.6250350737522954,0.6404151498015436,0.641882451453466,0.6254540837047764,0.6135077316775055,0.6218373619704058,0.6054601139268068,0.5624195851222402,0.5109056200515789,0.4574397196942837,0.4333381491737596,0.4752675403036197,0.5290655728041729,0.5781674071499401,0.6168134965673455,0.6562452318521863,0.7136556724584426,0.7707250963620276,0.8381477791193521,0.9079464643123808,0.9623567623795456,0.9309885464950902,0.8557667945307386,0.7810444558250691,0.7017779664620791,0.6229606348551349,0.5489612598162654,0.4708257783046679,0.3912863764208408,0.3173836438081342,0.3179017322043061,0.39110773618442063,0.4655380363857047,0.5409311254933249,0.6131016573556569,0.6699810281872605,0.6834046759128412,0.6567502046372578,0.627266430001745,0.6391843482095936,0.6497585676441893,0.6409988749656166,0.6240568028822764,0.6221912684837723,0.6302048949494439,0.6086949775254691,0.5624652961280809,0.5091388261853198,0.4638210910286609,0.4683182618477455,0.5196962833703704,0.5707700556900417,0.6167335348122216,0.6561201874198481,0.7030118901608196,0.7650823789342696,0.8337007865006267,0.9045952933627096,0.9745607055171082,1.0,0.9410377346835928,0.8659927166961441,0.7866675017898863,0.7102188602056834,0.6350371227113647,0.5556669775838545,0.4761087196502461,0.3965629241700324,0.3228357066525619,0.326450259012156,0.3998636189595495,0.4740047914060504,0.5507993294739948,0.6182407636290617,0.6787369640721572,0.7134300171555391,0.704720281876769,0.6755167739933325,0.6822256292753672,0.7027143731765757,0.6975922932911724,0.6814500002991144,0.6588190926123578,0.6486289705706298,0.6599057067895946,0.6448852184934191,0.5999053649298174,0.5508303125006808,0.498144286688536,0.4790642315226603,0.5227040678496964,0.5715395573767525,0.6084685437034825,0.6468673108304039,0.6940930116873623,0.7623746590776019,0.8333196684403918,0.904205908620176,0.9575756099391184,0.9293300097819313,0.8558335331142799,0.7764617936644611,0.6996037372711985,0.6247779906970703,0.5454795523491931,0.4659213918272054,0.38699194993234376,0.3437461285844832,0.3977848991388353,0.4735625022115146,0.5483795204254946,0.6189875210544036,0.6728044767847371,0.6775196901280516,0.6439760819185123,0.6118443210483531,0.6229325909990253,0.63815501134401,0.6385593853968625,0.6262313631240803,0.6134446105377176,0.6251595810528976,0.6258569334636293,No
6,0.6215489606564522,0.6254440437643732,0.6282560485354973,0.6299098290822743,0.6220870716313055,0.6167182261955516,0.6281978150789349,0.5967733230075806,0.544478382696935,0.4898311939375014,0.4329048382733366,0.3786873231234675,0.3224427254192101,0.2650814596363676,0.2078045492832009,0.15287662972672197,0.09752774205456956,0.040603671097761564,0.0,0.02539919855335529,0.08163606936668077,0.1389998675296233,0.19543290697727844,0.24954637971721816,0.3053196097343233,0.3560795895359081,0.4120406104403288,0.4691616925459747,0.521383933546611,0.5747027772438471,0.6288521156735061,0.685072029249936,0.7424324942697963,0.7996395089798753,0.8408261045651322,0.812131846078435,0.7589933824233436,0.7064924799320522,0.6597939338645383,0.6244332062295881,0.6072318427421987,0.5882050102845192,0.5555937970097982,0.5193774295311253,0.49481554265686295,0.5139319553144184,0.5536478738569834,0.5921904900990439,0.6165748341269081,0.6211664539397053,0.6148430040810683,0.6189669484137559,0.6225151658260796,0.6264023275570015,0.6279924652836401,0.6193711700006838,0.6148337743805621,0.6284878094235734,0.6019713527635001,0.5499391121390016,0.4953527203898572,0.4386739093141896,0.3846213529441225,0.32798011304168895,0.2706182347948118,0.21414487996321716,0.16004170862041944,0.103115164346776,0.04790794893866282,0.02846890107814545,0.0705066664265594,0.12681173202927706,0.18410536259728025,0.2392242448127425,0.2943770547977381,0.3516803012028853,0.4090513559162972,0.4664224106297095,0.5237934653431214,0.5811645200565336,0.638535574769946,0.695906629483358,0.7532776841967707,0.8105354236483847,0.8543522065620185,0.8296851368581495,0.7759482750624839,0.7233111211747106,0.6751611004834396,0.637840296453218,0.6191412152309618,0.602536967083235,0.5715924662024188,0.5367463331555612,0.5120417082777097,0.5299024187398922,0.5685707658653861,0.6028729167128086,0.6180433174021142,0.6131274219955793,0.6131190504911123,0.6217994702825613,0.6296289838365617,0.6337713194452054,0.6316702705359103,0.61921698940228,0.6256956719795104,0.6197206681101731,0.5719710977621879,0.5184121505378497,0.4616535434746624,0.4064275520181725,0.3530798173711675,0.30233858787400403,0.24599100656347775,0.1906926581217871,0.13571731390529046,0.0784504321398877,0.023366296226087657,0.0016164878868938914,0.04387278370896292,0.10077604927151036,0.1576387897179778,0.21170812128736136,0.2682849873356368,0.3256518453783265,0.3830229000917379,0.4403939548051502,0.4977619322753871,0.5544344649502252,0.6084846319598706,0.6652710660399905,0.7226400226532699,0.7799869539339288,0.8308272272399374,0.8217566587424875,0.7692005646838188,0.7170977524287985,0.6673030505970421,0.6287537541740964,0.608434500888207,0.5899241285324001,0.563213711990443,0.5621176849611222,0.5923989551415989,0.6142860107382637,0.631742727058725,0.6632635364668934,0.7096368157469382,0.7625939086099024,0.8192633811733988,0.8733352048845697,0.9274434884918996,0.9761196344620159,0.9737127715759384,0.9222687996064268,0.8681318084592969,0.8118330784229322,0.7544707181040871,0.6972555318036724,0.642645988851018,0.5869385850784041,0.5301912064860295,0.5015069189063054,0.5434439879955374,0.5962149340697482,0.6407327781163893,0.6463856432081407,0.6347548057437509,0.6467686950622459,0.6490271166223072,0.6428031571361343,0.6382186686846143,0.6288721342962555,0.6277147372346935,0.6315640071860134,0.6206509575446568,0.5902599867091067,0.5502227077514599,0.5281269732763503,0.5539794719412238,0.5890495581044436,0.6178906251227545,0.6329349936545019,0.6500270616847409,0.689517644070192,0.7391863032773021,0.7923404699810749,0.8464323113909787,0.9002247806441122,0.9539483173259672,0.9955278000247634,0.9730413803645676,0.9187177028057772,0.8644008959302794,0.8072864361974563,0.7499370872131171,0.6940717878419282,0.6395902801041419,0.5824115809933655,0.5250406621847155,0.4678427192367318,0.4271676116235009,0.4575627398484237,0.5115133740605411,0.5647857101565209,0.6108635535501392,0.6466260553640407,0.6393233053510011,0.6311896603320697,0.6428885885797605,0.6433782426171702,0.6399219184487132,0.6356346106373536,0.6307750731139111,0.629455300659621,0.6355922956297629,0.6283850519937003,0.6059086034368691,0.5688313729585236,0.5278207249203196,0.517259812962172,0.5499884616601968,0.5854954750295529,0.6113402033261127,0.6264573473001521,0.6521805620229445,0.6946903934275539,0.7414023719264762,0.7941145868579382,0.8479456436880162,0.9028849139180292,0.956636813849654,1.0,0.9825665919226108,0.9276610003563152,0.8702972835081941,0.8129263298760674,0.7558064060456723,0.7051316031325229,0.6601635837719949,0.6130792672622887,0.5583083325376718,0.5013086078863312,0.4662829687719238,0.5039310356570862,0.5584015850850196,0.6101171976997508,0.6442491638873767,0.6360201605630534,0.6334820930152931,0.6414129064848629,0.6416985843198213,0.6398246103358629,0.6362765960534548,No
7,0.6127688112112086,0.6229580061901958,0.6159089850461446,0.594167702319331,0.5891893635814907,0.602780478684078,0.6413414969514786,0.6437063897763861,0.575634828496437,0.4899462531985162,0.4007279432918649,0.3100203231730993,0.21488170200594306,0.1232351783983754,0.05205578205222605,0.08868095818069266,0.17912667984713582,0.2802897005312013,0.3821213888823853,0.4835820257251735,0.5775210613838884,0.6747171120524047,0.7694373656373752,0.796320762566866,0.7240205876271741,0.6508791093676984,0.5972062949209509,0.5701554881862079,0.5408394534933538,0.5017287431303921,0.4440566923991745,0.3823823811450311,0.3507569529309915,0.3813652774615397,0.4465836007023725,0.5130911763030046,0.5808905693811479,0.623590510710734,0.6323525524146583,0.6156884962859748,0.5993557569906247,0.5937798316297467,0.5981626337419919,0.6120592041376904,0.6171353256606651,0.6077314232371076,0.5937392132157251,0.612673239994171,0.6529568569651498,0.6438857598542447,0.5722537636407454,0.487655495590908,0.41193761743586577,0.3259797140209724,0.23184092440557255,0.13757298100283566,0.05494550581217928,0.059422959772772226,0.15287813984915988,0.24641040447606066,0.34411030250223984,0.44296359105854055,0.5356966498439057,0.6366244175123155,0.7333590305653039,0.8240295408318132,0.8418725065749133,0.7643469068598707,0.6849408738612289,0.6258982812902045,0.5917273008263939,0.5589231995942561,0.5205237620353957,0.4669924442297355,0.40890520023991295,0.3645640144849194,0.36444484702524704,0.4166884557447006,0.4844936586143279,0.5580937021612511,0.6169522847888265,0.647392631217915,0.6490944589598036,0.6300515049465385,0.6089000706767689,0.6069525223639671,0.6088312078427582,0.6234133653371317,0.637990408380239,0.6249732825716003,0.6023091559546903,0.6217304559545338,0.6506067318800357,0.669807119567295,0.6144780071694542,0.5292662517379461,0.4373835268961044,0.3454295349241674,0.2531494207656697,0.16013547132274852,0.06333224196795695,0.0,0.053428996083482616,0.1503140186849965,0.2514144533220504,0.344381716538966,0.4426924547897142,0.5330259932302497,0.6121022851264855,0.7097463976407548,0.8065511763496411,0.8358952008189167,0.7638529239395522,0.6807676575673478,0.620893241784229,0.5864539630556134,0.5563626667694461,0.5143119268831657,0.4603638910850387,0.401770937925924,0.3438077838008211,0.3283015534340612,0.3779441919580615,0.4547991702978391,0.5253848943154267,0.5867376912810773,0.6263533883820986,0.6464927635241218,0.6383188385509906,0.6186373846567867,0.6145237437153732,0.6159840789810864,0.6257046404949798,0.639240599160319,0.6679128674719232,0.6626553275337719,0.6569328343292729,0.6528546331882927,0.6596188068209046,0.6781341762846689,0.6893307220918083,0.6741533260722832,0.645781712282526,0.5975273795684941,0.5299585844292081,0.4566028235833839,0.3907840998761132,0.3919496658009307,0.4523886273429734,0.5081919908536026,0.5583261124792511,0.5978750773664989,0.6273775744718619,0.6688001381203452,0.7308575266040178,0.7977539915405754,0.8852683292569912,0.9731820009256278,1.0000000000000002,0.933331831516344,0.8422936489032284,0.742081001501717,0.6450381742531872,0.5509140613196306,0.4496432910955375,0.3769259776754532,0.4351913789962905,0.5347082689986797,0.6227935619713241,0.6927460066651345,0.7174843510907676,0.6947468317414616,0.6607188550476331,0.6555110731037213,0.6759611330138282,0.6704269226556663,0.6586472964217271,0.6503520460140539,0.6473754605038284,0.6634233573224952,0.6808498175389561,0.6901149231659514,0.6751713634755048,0.6391423583156166,0.5759154587772197,0.5082828469455205,0.4394099383557229,0.40837337104861904,0.44862570743698893,0.5041047250552524,0.5572111061495331,0.5935400714708743,0.6260235059201344,0.6620658741370773,0.7304639250325191,0.8142427592495622,0.8970574692220551,0.96097298938685,0.9461420216531476,0.8753611690760275,0.7764104635879348,0.6746651760645339,0.5779432945381362,0.4835212156341595,0.3828745353843028,0.33236658240155914,0.40345234239864797,0.4952873829799727,0.5825942673153659,0.6615430797057147,0.7047772647010306,0.6940216953349363,0.6556080333778176,0.6345321824690842,0.6533177539093715,0.6640275317783757,0.6575610214751892,0.6459722882882135,0.6352747460236758,0.6457533493080503,0.6602226052375639,0.670128574072854,0.6659681010501789,0.6264958974073191,0.5642269990630651,0.4989685468049705,0.43283497775394203,0.4048236837417627,0.4567590136748602,0.5137122724823231,0.5599839541248472,0.5937832325602279,0.6200771737275177,0.661862939618546,0.735661394392267,0.8176896342309956,0.8990768469462054,0.9385315739923612,0.8744974224516475,0.783184264867667,0.6853024464340296,0.5929831459270487,0.4925626800593082,0.4087758729847544,0.4312868438247546,0.5056078041336802,0.5910409635824292,0.6623773659331993,0.6935916990102611,0.6750026144968613,0.6401779677475619,0.6445208010693964,0.6582138430562001,0.6633234378086168,0.6556797329369204,No
8,0.7846274666356287,0.7650965944149191,0.7480834118375678,0.7289840217026636,0.6981982157858667,0.6494361760126389,0.6237233869142759,0.6085781418168613,0.5664274625228646,0.5312563929333664,0.5285680431820791,0.597051409414468,0.6490540754946895,0.6612694875280379,0.622959782363239,0.6064783996929174,0.6380168560425582,0.6895043462522629,0.7364355481809359,0.7669584460555886,0.7787901770602911,0.7786168156378795,0.775254607540771,0.7858862687411658,0.7932252455234058,0.7698837768812749,0.7627043677499721,0.7873985103870828,0.8061143388793116,0.7637544047199548,0.6874635328834257,0.6090743669142851,0.5300283323992511,0.44689817018803335,0.3699508950625404,0.2888188594678155,0.2065553088324924,0.13017090802620213,0.05000972238969581,0.0,0.04094628699063163,0.12114087747270952,0.2048768164864744,0.288016128894781,0.3647909116044579,0.4461874024390048,0.5273326310728815,0.5964932784736333,0.6774928794554712,0.7585975051485147,0.8215198676071883,0.8105972794952222,0.7860497510546937,0.7696361716361996,0.7506151371748936,0.7183833965215186,0.6811905074114962,0.6459937690776384,0.6380394475685595,0.6736411883987238,0.725623451215473,0.7702776468675255,0.7961976223509247,0.8058988081560846,0.7966026931339006,0.7836098802481252,0.7894528183671333,0.7945676949826636,0.7726435268461461,0.7563360931883448,0.7794715814715977,0.8067953080389744,0.7858276519717339,0.7125125312529849,0.6352344958216266,0.5579320725555262,0.4776503852052994,0.3956140911800977,0.3275392530292415,0.2559114084545936,0.1727702461274413,0.1072578586018652,0.13456117321780425,0.21274246252892148,0.2898702846899349,0.37318320279771056,0.4569415673478089,0.5395646205698893,0.6159571937301037,0.6982523435590925,0.7818371858770307,0.8443055998250674,0.8223886313596912,0.7977226139914227,0.7825394183501228,0.7648445813439856,0.7382866396895144,0.7010943054569966,0.6607223571545412,0.6491219423233879,0.6832012480779687,0.7323044076765507,0.7777932814690737,0.8041107231018864,0.8086194810179103,0.8064112554238557,0.804474114774539,0.8069645036101963,0.8074982468409123,0.7820703718551502,0.7638467153611407,0.7809117223834819,0.799059345224778,0.7598055495904841,0.6784137277570502,0.5996177678787759,0.5206540587464988,0.43983037370607103,0.3627481839444641,0.2802051257472832,0.20360252814156726,0.12319779005162325,0.06701855575675764,0.0996311458072704,0.1766586644740301,0.2602617128504626,0.34395548653068764,0.4236403511396315,0.5017704011700236,0.585326229929812,0.6690654412187914,0.7497178972240085,0.7992373478665747,0.783795390140955,0.7635119196301842,0.7475920586084809,0.7247160419476432,0.6909065115561214,0.6506032919226868,0.6266311499693223,0.6480445903100419,0.6937455268092421,0.7456086074024716,0.7307757847666047,0.6822551539327765,0.6676058452928259,0.7009299732005877,0.7382345872333295,0.7671750388208757,0.7855542106027545,0.8004324621993858,0.8297263380238239,0.8875774829419371,0.953659607134532,0.9708190140036802,0.9065205604223041,0.8268016354697426,0.7492134744911297,0.6657605383345814,0.5820317546008861,0.5053299924696429,0.5064166193166492,0.5845230157771261,0.6625383943243698,0.7412665823906376,0.8117372128317811,0.8444378950554207,0.8253683095529974,0.8046118490095561,0.8128581114876031,0.8359039125547988,0.8378952145686119,0.8363823709823376,0.8360451017169716,0.8413744245596287,0.8342936907547943,0.8196269789398108,0.7807225628438174,0.7329772309979521,0.6905818082730176,0.7009550696406778,0.7390167334882717,0.7737724752877572,0.7964125866822155,0.8112526240529837,0.8294402939740378,0.8652475359028823,0.9350840839239356,1.0,0.9986551037429696,0.9291746989057641,0.8460038722613421,0.7626862555369469,0.6855965637331233,0.6120501645521857,0.6194099024294929,0.6978743210188737,0.7804938266942917,0.8443320826984438,0.8482246245615105,0.8223496170554206,0.7961949474227815,0.8052291550919705,0.8221582353612492,0.8166804820987287,0.8174827335050521,0.8284355335868107,0.8337384812101308,0.8265984796752258,0.8014047335681372,0.7599248205855281,0.7060342803183822,0.6713524861037844,0.6933430414028124,0.7304899674046935,0.7664561756668365,0.7894691716505536,0.8045766735733731,0.8277828809332474,0.8754685008186184,0.9340683325382954,0.98034875364233,0.9500020193505696,0.8708302680269174,0.7978117926146421,0.7228884698023321,0.6477142409879934,0.5750372279819983,0.5097627958283607,0.5485031697878572,0.6290690348036351,0.7055346378466482,0.7822026504620511,0.8437701680632944,0.8456454453962895,0.8180113017725134,0.8002278714637886,0.8151669004402923,0.8252963762516924,0.8109771874428432,0.8051080770469649,0.8094468722101049,0.803453809997929,0.7920603860696981,0.7640085010436307,0.7173972991746501,0.6638013194406623,0.6456892852672701,0.6818682223495455,0.721537856835159,0.7590800896273063,0.7781236198677975,0.7949624081447332,0.8198581131315789,0.8629418030094581,No
9,0.8128741335923289,0.8174098654337116,0.7948136211260171,0.7718723418773629,0.8010215173959561,0.8336628137489269,0.8456884344882665,0.8163509886689273,0.7464671941354974,0.6624121667096619,0.5709271530970621,0.4840193149520924,0.39481032589835374,0.303248591198213,0.21792463864987568,0.1275522503591977,0.04952220904785953,0.03897380647913007,0.11260845641673888,0.20450131454919807,0.2951196338176549,0.3809340723287031,0.4736603661371126,0.5670140159670174,0.6603681617748676,0.7535814690396421,0.8331236168146591,0.8294858914986529,0.7929344536400991,0.7655551774102798,0.7370826737574012,0.6957436923332181,0.6402870922370472,0.5740832591001217,0.5147853328770033,0.4684085440917882,0.4765629983583484,0.5329465414558419,0.6030856834375045,0.6788001973291861,0.7465606544662136,0.7926029877352045,0.8035054849959515,0.7982791937246922,0.7879210572294646,0.7923468885161179,0.8049168170779809,0.8087528541407676,0.8149562727471158,0.8133919638416278,0.8208662647770175,0.8225116577843952,0.8219841784494961,0.8110937994864751,0.7947938473630323,0.8148051858392089,0.8421510273554536,0.8393468192190925,0.7842851347084292,0.7027221632722496,0.6179869750382232,0.5270338488400457,0.4380768764734062,0.3509426958197077,0.2580501735549574,0.17080377200055796,0.08336922964694549,0.021048272606388533,0.0600376659902655,0.14444519635770806,0.23727716827389544,0.3304954393887827,0.41852314742844055,0.5065527124090521,0.5997735784816058,0.6928219039133807,0.7756454784378808,0.8410213851288546,0.8388113000315396,0.7971544918338043,0.7706449391399671,0.7436592822623342,0.7005627515943622,0.6445443380616591,0.5818400864764084,0.5187050969025537,0.4633683528819297,0.4551134739581377,0.5038065181333817,0.57479856946491,0.6465661130257541,0.7124254704427535,0.7678883397188461,0.7873241659001229,0.7745766809222023,0.7635211479488688,0.7674251590435495,0.7752339625654041,0.7833813965550751,0.7869096589115614,0.7839027700875092,0.7863197739686183,0.7915639315082226,0.7853765370578545,0.7597930181229433,0.7718066171623954,0.8077382399574972,0.8272676338727223,0.8138122467650237,0.7489377336363878,0.6661507169319931,0.5766053413281227,0.4846293587666308,0.3993341571904765,0.30751779516748656,0.21667852096878248,0.1311694785828974,0.04515046819407975,0.0,0.055485963830886886,0.12762433236904025,0.21547674992488888,0.3079973154936597,0.3935780221647121,0.4845924751799282,0.5779104363985161,0.6683648658786647,0.7542661906128878,0.8381318573799688,0.8349531355423123,0.7894209476973153,0.7622838295213847,0.7359039947366477,0.6988951619871069,0.6444306698318056,0.5859635363186069,0.5466038631820767,0.5929407990299391,0.6571902825399807,0.71152057383709,0.7534275995411432,0.7824419855329912,0.8095129268945591,0.8457012012217926,0.9176710930487412,0.9812476971525764,0.9628153942451372,0.8834600577059961,0.7921516548339682,0.7061800759197625,0.6158088415528156,0.5227833931102039,0.4562459884897714,0.4975002989314352,0.587987886716963,0.6788335550057996,0.7611754392658161,0.833174324646347,0.8627688017066746,0.8550693404217504,0.8299190739014417,0.8051222630308863,0.8191730551817928,0.8240174912723432,0.8238969386717079,0.8220435899349758,0.8174367088182992,0.8208742384660981,0.816117291094721,0.8070554948479336,0.7995064531617986,0.8060107921784074,0.8217288490542558,0.8141866542667067,0.7800307750882269,0.7206258434475394,0.6515117989567587,0.5743536549425241,0.5111278606018992,0.4990333499497284,0.5592271351447538,0.6246281345258582,0.6846863339402827,0.7390827020170276,0.7774844976361892,0.8035491703991007,0.830304368626041,0.8845070514327109,0.9575123576186976,0.9999999999999998,0.9493686847161192,0.8620958130684702,0.7765407480279864,0.6856192656634497,0.5923017976665463,0.5079147358787706,0.5187593002580766,0.6051709004334838,0.6874895955852998,0.7588744550326867,0.8339290818581997,0.8809906661787834,0.8799043012474523,0.8605515821660479,0.8331988779262942,0.8374186396697679,0.8533032961108309,0.8531934838319688,0.8581879850656147,0.8565667847309701,0.8506278950474826,0.8475400235601884,0.8391613620291811,0.830637122061495,0.8218090932072424,0.8252732656216615,0.8379831797883643,0.8355815482894909,0.8058316217673989,0.7503005998580794,0.6800840876658679,0.6095382497820268,0.5419195618445579,0.5198597476529077,0.5706836884837723,0.6311178324605795,0.6919931503065564,0.7414530060954776,0.7792294960674784,0.8066223456087294,0.8345443311177698,0.8875780883792166,0.9565786556319258,0.9662354805006648,0.8939324046426613,0.8050417670377776,0.7125420227686996,0.6351186749204836,0.5627521391638324,0.4850004367156062,0.3958811386561922,0.3437940483914104,0.4061175991383372,0.4988761454368103,0.5858619887974144,0.6744868660774488,0.7593495771296528,0.8351217071271291,0.8775273850982535,0.8770834575854494,0.8528168374943679,0.8264731256308044,0.8442995976139096,0.85563309039781,0.8503325206055747,No
10,0.04571953839717091,0.1108787511802296,0.2131748274072689,0.28374194681468845,0.33241621118564435,0.41209853598542745,0.5058253569283822,0.5415829464041084,0.5205137380003713,0.4842631895797838,0.4353652443279685,0.3820891501262982,0.3177481492370591,0.24744735306331303,0.1880394584228524,0.19291705160430486,0.25037323891779595,0.3315801203978279,0.4130596215220512,0.4933150460833416,0.5618419953046696,0.6026163089115748,0.6184270710776589,0.6057053018474998,0.5892026334141782,0.5841795108918633,0.5841485272500369,0.584148527250044,0.5841485272500511,0.5841456464083365,0.5811665890862905,0.5507170589710446,0.5196191320354893,0.5339376607540385,0.5404300512534173,0.5769862796564302,0.5872519998431991,0.6314462492146635,0.7274099377946399,0.7936498991235847,0.7316711959901481,0.637624630178943,0.5284340146728574,0.41855829063540506,0.3095979634548143,0.1919735980053772,0.0866345509265436,0.0,0.03191373604993819,0.14511493383678964,0.2634262150719806,0.3708288170107674,0.4683953555322154,0.5180149550192175,0.5017762769497627,0.4639591355705624,0.4149832378810152,0.35610400930681285,0.2964409983336491,0.23064780187707926,0.16969659682346228,0.162298216445544,0.21337007482942785,0.29523091258193146,0.37686049560908863,0.4554066029861437,0.5214355158730779,0.5730064921692413,0.577269113895094,0.5534138291821233,0.5467287890531414,0.5537872085323747,0.5650360382226585,0.5714740380366892,0.5749196386223656,0.570997501660405,0.5830575155241804,0.5663013802829377,0.5328792522702246,0.5263640539783583,0.5474566348458851,0.5827236944795748,0.6028304206038855,0.6242789040063723,0.7091282120862816,0.8089053610330046,0.8215330903431202,0.7366786816655053,0.6268842835090997,0.5210502458852629,0.4075831979061877,0.29174513496305243,0.18838889268536446,0.11257322044044617,0.15508459851772827,0.25196158204098884,0.3390150683727011,0.4360781877690818,0.5176406525964441,0.5111348154545738,0.47082352529838106,0.4308562466175463,0.3773073610743691,0.31151550952434537,0.2517649981154277,0.19301935466583944,0.16178220987128356,0.1985509264552916,0.2667548322609905,0.35316137834674954,0.4366821414320175,0.5085211711757487,0.5571004810590012,0.5645952572480937,0.55176725527962,0.5474421598438739,0.5613401954169848,0.5795849916039857,0.5749876258432689,0.5640824128311572,0.5540646038403989,0.5636564017715839,0.5452583792078722,0.5122480675931769,0.5054359729510018,0.5167627241432835,0.54277806589741,0.5550597368509322,0.571362453976191,0.636229831993584,0.7257394601589366,0.7037528840775318,0.7144348562476561,0.7899362686754303,0.8730648947924222,0.9356994734379418,0.8913241885985403,0.7915297156763539,0.6887546431243159,0.6306515688787337,0.6092868038437582,0.5893925753392177,0.5685156574467101,0.5851578901063066,0.6091994911888841,0.6104361120195878,0.6116763591000605,0.6254005941041876,0.6291076343942996,0.6210263375767004,0.5974955960501682,0.6025558496533399,0.616612623653757,0.6267296078151494,0.6052919746950551,0.5585759081583515,0.4807089159985791,0.3942033787665196,0.31667754998738,0.2447657748788465,0.2479429451874497,0.3082064557852249,0.3726504335135159,0.43148817486285695,0.4829558550485351,0.5229934591894452,0.5620058080319339,0.5719754698753703,0.5459638138190459,0.4795399355172534,0.5382063141716116,0.6444522836007649,0.7531963516284566,0.8429816145169378,0.9204591534740696,1.0,0.981723872018093,0.8874591101901084,0.7831535360020112,0.6921002082489385,0.659607502040934,0.6373941437486854,0.6200663907193125,0.5918100935363997,0.6013565299763282,0.6278697940663922,0.6292118580315975,0.6292125106506643,0.6292125106506581,0.629175221117265,0.6229870256558163,0.5972644230940163,0.6007389507092888,0.6223433291971441,0.6286725811664513,0.6126270624905289,0.5606080827526987,0.4949968135565537,0.4124387417162434,0.32458472089242063,0.2498190629197281,0.21671131926985954,0.274230027773287,0.3403525700114836,0.3997689645253968,0.4587047455083039,0.5080596955556,0.5460698378744406,0.5699473448685461,0.5639524870962473,0.5036736450669532,0.5109403792340554,0.6195976919525581,0.7184297929566692,0.8089933594600955,0.8946566138687913,0.9751065834653714,0.9641437491965696,0.8709221769547111,0.7670610304375174,0.6733808830807888,0.6375349698754973,0.6379331563707953,0.6066836861282492,0.5977669316046512,0.6095881841862427,0.6283399994509864,0.6292123730266255,0.6299403284578724,0.6414681206434611,0.6367021711901049,0.6357659853445554,0.6312318255316609,0.6464990922469851,0.6628954665007334,0.6661694888367689,0.652304811563809,0.6161427807854221,0.549610704879135,0.4743250489160862,0.3848268816633485,0.30175781650248634,0.2554008523408595,0.2959162744908692,0.3671118139795966,0.43069941075158136,0.4866777446888966,0.5314703595492563,0.5688289521192513,0.6024396931689036,0.6054348060715293,0.5620553169558709,0.4967725850163749,0.5572434880215522,0.630533526797771,No
11,0.5353405928808044,0.5654190988428337,0.5932692557860247,0.634814143696341,0.666615142020591,0.6694755530381277,0.6554228095069263,0.662508218697922,0.6691908025788736,0.663819659314672,0.6730434653486564,0.6900313537731873,0.6710410283951197,0.6146217758969409,0.552315255423875,0.4880142110358055,0.4267851603365135,0.3639925604530415,0.2994563580921581,0.2349038431244065,0.17151822355979793,0.1106821871430533,0.046872083909233225,0.0,0.028619829963698162,0.09201937408957807,0.15657126231101884,0.21994346832423287,0.2807826557941052,0.3449263314169464,0.4094868259237858,0.4740480821628916,0.5386023060604729,0.6020910808053338,0.6628774156200755,0.7269559333490808,0.7914851122177671,0.8478859562263228,0.834525819155959,0.7774535282373223,0.7232792828487828,0.6841596115367071,0.659310111631933,0.6301130934379472,0.5901246770809246,0.5485550791784563,0.5261490691510754,0.5488734461086295,0.5932639573429593,0.6387494000642143,0.6748542267336444,0.6951853069284148,0.6873567558235456,0.6793465309708371,0.6853345417001094,0.6810115914964383,0.6773831172689144,0.6926558170470611,0.6953304633741187,0.6474894346854628,0.5871081896087772,0.5234326925683228,0.4606584972270205,0.3994144543103173,0.3350654278656042,0.2705058383675383,0.2065106343737824,0.1457739482672417,0.08220951322016254,0.02503891326947666,0.02640740646918049,0.0747811301616346,0.1369990199037933,0.20145854565506308,0.2633582925890473,0.3254038152289992,0.3898923590497261,0.4544536152888321,0.5190137085836243,0.583074984837652,0.6438409433589489,0.7073666717615448,0.7709608036659649,0.7985835617864256,0.7525002280685315,0.7031139200446748,0.6721344992002432,0.6481754468913821,0.6131889218963171,0.5720278364639593,0.5317482032715787,0.5228472827771673,0.5561885737321659,0.6021795629148833,0.6471741926895516,0.6790798909097642,0.6983333790356171,0.6976340185244462,0.6955706118799838,0.6978688543469828,0.6915588513113354,0.6863203399437984,0.6985114589434603,0.6978202629646122,0.6490355377549664,0.5868541232149036,0.5255085406478651,0.4628985584945978,0.3984027195487621,0.3357681648231058,0.27440845998285257,0.2100252883163082,0.1456883828913065,0.08566673727519672,0.05933762344508513,0.10573751020670057,0.16967910512778805,0.23156207705764184,0.29362398503175113,0.3581141531577823,0.42267427842686794,0.4867422615697984,0.5475131231216813,0.6110274451618077,0.6755821981856803,0.740138640313043,0.8012614804387632,0.8064550642432549,0.7538169607711105,0.7065952352453067,0.6787118330647043,0.6541198287532121,0.6191373632747291,0.5773612068902435,0.5419448175495205,0.5429963116671339,0.5789924326769338,0.6259356872126018,0.6661659708314068,0.6915628701953089,0.7066159416862368,0.706336364873088,0.682082498949604,0.6434275754751405,0.5982391633119609,0.5616714337465398,0.5710515306256422,0.612259340610946,0.6510081967552043,0.6813844059746641,0.7051666787432462,0.7438787243413644,0.7992926123789712,0.8593901051281105,0.9196098256801905,0.9774874721789422,1.0,0.9503983237532488,0.8895208163883366,0.8264804217471973,0.7619360185444072,0.6973757973524383,0.6332906949597994,0.5752589561598502,0.5657973141125627,0.6214719669376472,0.6820528476752425,0.7203931875147394,0.7195912677777603,0.7079458886449946,0.7125761557323248,0.717596228909705,0.7145469868279793,0.7168356696035999,0.7179111479246045,0.7032771687082267,0.6732279733150227,0.6321829829986025,0.5864079349253942,0.5477619438098311,0.5553728502287019,0.5959244937595682,0.636483193392895,0.6679790409335968,0.6916254464576462,0.7301236773244478,0.7842445208379404,0.8428159787975176,0.9027556737434436,0.9611498427948038,0.9840247103543744,0.9365696951604814,0.8739490302068753,0.8094285416645509,0.7462690596870554,0.6853049901686583,0.6210689987702529,0.5565081302582338,0.4919468740191284,0.4274589487760375,0.3751072728364784,0.4003957675553663,0.462922633946911,0.523663356596504,0.5873717885758135,0.6482067135434474,0.7011850923877327,0.7183814764032931,0.7044457070831275,0.6962106739204301,0.7028083922450692,0.6964921931954106,0.7019523989854254,0.7140663916799365,0.7097268860147222,0.6851648196043463,0.6476427206452955,0.6015844791555832,0.5597898124053702,0.5550608548188672,0.5914011023794448,0.6325659136854753,0.6654918085482469,0.6906059733983301,0.7251028547999252,0.7785658002263729,0.8367529150381676,0.8962543149459101,0.9546993741420536,0.9810749225015112,0.9346692696036458,0.8703964169148344,0.8058685925597937,0.7432586104065262,0.6818762758668366,0.6174895885779007,0.5529283718869372,0.4886672232284409,0.4471566863585793,0.4864279658414658,0.5472572647331914,0.610454589184954,0.6695681232130641,0.7076539255047389,0.7035072210014376,0.6879961768367533,0.6875323717805464,0.6861069949406051,0.6752852995485751,0.6802298742376827,0.6914503000832688,0.6750461391183556,0.6415792924966338,0.610052797072963,0.5714902090729385,No
12,0.4793161775414042,0.4930549522537784,0.4460382647713733,0.3852485130016831,0.32730104820147826,0.2657108326217684,0.2066342283222076,0.14846819075314038,0.12044913545494755,0.16264345915420458,0.2207843712845063,0.2827399807667274,0.34491495570827063,0.4062822792431533,0.459083776882369,0.5042779796671497,0.5637609811112261,0.6259226564775187,0.687565295651845,0.7454659646226216,0.8064451776194725,0.8590846342636659,0.8392344129115665,0.7831716489521721,0.7289396708048217,0.6834940700464431,0.6524972067580155,0.6389820512939803,0.6232031805823675,0.5959729918867147,0.56161211955044,0.5350472864229177,0.5431184091016463,0.5772428371032774,0.6077971594293115,0.6298905604840335,0.6290419442280502,0.6127289146831031,0.6154595572713841,0.63296711518674,0.6440642089872572,0.6579366743152002,0.6685860098604871,0.6760936641499786,0.6615075839559008,0.6281248654564673,0.6079436590451371,0.6084858958867121,0.5852329794049977,0.5298410119664958,0.4681958873185522,0.4102136870151337,0.3493704238080253,0.2885282933833801,0.2305424607617493,0.16881366771429868,0.10699213611625093,0.049416281267427815,0.012081720144475006,0.04677592205540943,0.10634191102090984,0.16465117754709466,0.226562251869264,0.28873941007287396,0.3506127619553087,0.4088310408302305,0.4693133400242589,0.531473805264608,0.5936514220193387,0.6557095850209809,0.7146776452651811,0.7735036156471484,0.8016745910045813,0.7556038162044341,0.6999690733669057,0.6499100191425109,0.6168414922148377,0.6080685095400138,0.5958627632528284,0.5681399346172684,0.5342462669159813,0.5053856321139509,0.5124391853924437,0.5456695223399903,0.5786353666459032,0.6055712612508353,0.6133707662173584,0.5987378753410404,0.5937037506392739,0.6042700661246623,0.6086473112488899,0.6066078629718905,0.6038188151669366,0.5938504935664506,0.5860637932389319,0.5988383086037872,0.6033325469875068,0.5752505902087663,0.5190037612752536,0.4570386931115081,0.39487281741626573,0.33417487893613546,0.27610257848474024,0.21435203085473425,0.15462054688462207,0.09579074605118047,0.03497299045925556,0.0,0.03481154041770529,0.0950017787587994,0.15715789419881435,0.21806786075876733,0.2760199651192945,0.3377232701398492,0.3999000518577272,0.4620776734802063,0.5241856579975364,0.5836163907764036,0.6427340297997586,0.7047705110173692,0.7574813752696528,0.7392699370623927,0.6840128981242184,0.6365372648542853,0.6371819401227867,0.6666272871183014,0.670537928032668,0.648312402237847,0.6140307346460352,0.579245075487453,0.5599192912837863,0.5802602138153938,0.6123535678655749,0.6375675724420966,0.6419876866263572,0.6295398032627371,0.6252522863978947,0.6411628924663137,0.6467605506170144,0.6584007527986977,0.6680575128565034,0.6562858038015063,0.6299807887669009,0.5978628136025466,0.5931530853803446,0.6249030889059517,0.6606788028144971,0.6925933876367487,0.7054831312870333,0.6932828654920433,0.6670067287757946,0.6846697226640139,0.7409489467558672,0.7987515942670056,0.8558595409776131,0.9096339716397446,0.9301748459758332,0.8844290239553722,0.8252022903743979,0.7662802064272145,0.704230488750687,0.6430474250217473,0.5852004472439136,0.5236676742510713,0.4614917554475767,0.3993778207803469,0.3486297382436481,0.3701962226507793,0.4287140628564428,0.4895178079243295,0.5436597339482745,0.5917284189480008,0.625633178690225,0.6251911812308735,0.6125986879696173,0.609378627046536,0.6221656916876708,0.6260640855664623,0.6281652863754554,0.6290461852521336,0.6199838342399313,0.6102395304541444,0.6247022410673797,0.6361046089087434,0.6228053910782371,0.5955718779883212,0.5624785554159171,0.5319917591010515,0.5434379760424206,0.5777468544214455,0.6058297632134617,0.6243295343119597,0.6324743852213166,0.6601351757770022,0.7103929413751062,0.7659789569380151,0.823398743482237,0.8807210012082223,0.9360730912431848,0.9553316256821168,0.908931735422484,0.8532588700254009,0.8013046843167073,0.7436293760899622,0.6816796484147656,0.6195021304866297,0.5574071525480206,0.4981413177259359,0.4388630312553686,0.3774192874362735,0.34743059367860923,0.3949148643318852,0.4533829697686641,0.5127932772856925,0.5702241172867033,0.6192745605001271,0.6301785828883011,0.6307158346026509,0.6573435133807841,0.6867343383634266,0.6969129099179907,0.6890163250839552,0.6780387354806161,0.6669246161950679,0.6513224057327474,0.635051180029732,0.6395411241491646,0.6553385913964223,0.6495816857291659,0.6252095327913105,0.5948906148940158,0.5631159830561152,0.5703009869123239,0.6045374435291355,0.6344016132558554,0.6553065306715344,0.667896745981464,0.6864434078815265,0.7269837744090255,0.7805293343580977,0.8375701791154437,0.8959914515516805,0.9517347163277134,1.0,0.9881851564613096,0.931505585074432,0.872946177856216,0.8110231034174721,0.7515526451425876,0.6924737587956211,0.630437255300597,0.5765436787274008,0.5874550704028354,0.6397251749065105,0.6812353005224658,No
13,0.8094506658923395,0.8240425261131032,0.8420796142561155,0.8224593379541683,0.757464801040985,0.6853967208951468,0.61918314437216,0.5418205404404208,0.4654596934614802,0.3850402534702004,0.3081923802853061,0.2286339780508308,0.15052316179814812,0.07962347110705797,0.08084981550386655,0.15150817671062186,0.2324364262975909,0.3107724661341105,0.3887476594106203,0.4703724137223474,0.5517317190217843,0.6285763194449987,0.7082438056455946,0.7899335229896578,0.8683881542421863,0.908370444713509,0.8583646619603988,0.8000403254547843,0.7671922847548536,0.7343559861962274,0.6901177304808834,0.6401086474769127,0.5838368070223492,0.5276916985930817,0.5021176746090851,0.5420409086757656,0.6040438581324861,0.6678964629133692,0.7276102939903792,0.7734499902801366,0.7793013822056487,0.769159160057242,0.7687286831555784,0.781097455370557,0.7986720288674263,0.8008932197384289,0.7942261915881408,0.7787219111156976,0.8005352031568456,0.8216084405209216,0.8030587813166361,0.7418536164614101,0.6629939316976909,0.5851440548451718,0.5182378719871734,0.44086967725142107,0.3645197052128869,0.2838660114416616,0.2049146396777468,0.1275944964627464,0.05135552836668228,0.020996103076387662,0.0772085164135537,0.14324720948018105,0.22244246731317316,0.30410308511973433,0.3826079468722889,0.4604272182720793,0.5420292918333596,0.6237774746028406,0.7055256573723228,0.7872578692551551,0.8665365199166335,0.9090977509696035,0.8617076143716849,0.8008183983995194,0.7592176408626605,0.7320169918381023,0.6911516692739561,0.6395552577875874,0.5799803214502695,0.5275903058805027,0.5008785966799323,0.5388651908110167,0.6002156771002236,0.6697101086982409,0.7306359706604124,0.7751497710065904,0.7863103416125972,0.7764403916427696,0.7784187769597835,0.7914087387656144,0.8054912315544367,0.8096917107985735,0.8104845133592689,0.7977580819075032,0.7823329786260198,0.8069716491331611,0.8225918936368641,0.7944168979763992,0.7237261742459458,0.6488928549871498,0.5718028037560334,0.4942076285943224,0.4135158274722351,0.3371235863603111,0.2565985597069767,0.17801909120602505,0.10047627363309347,0.025366030160692717,0.0,0.06424984009223461,0.1457869472565398,0.2275351300260227,0.3092806271429409,0.3901489340232433,0.4665449016619611,0.5471381459341145,0.6288747882948702,0.7093395255173056,0.7857657762782541,0.8654756398926982,0.9010622510426258,0.8496497467339321,0.7947351755876786,0.7577013678900628,0.7248810671462413,0.681289040462971,0.6269329997951887,0.569374576629849,0.5168530431818439,0.4948740315106663,0.5363770677719799,0.6038173075376829,0.6700958461672388,0.7292577484470943,0.7748564903543003,0.7907141082642306,0.8063787789475545,0.8004728321221606,0.7609134205995629,0.7038326037028113,0.6369795716235607,0.5719852430950259,0.5323552221009218,0.5679892065512306,0.6251620893187524,0.6794131846087037,0.7272176280780265,0.7630695327782593,0.7951582227946974,0.8460737738570452,0.9112022952067044,0.9741956561882711,0.9798839773289364,0.9094685383641152,0.8282862116244736,0.7515823548319496,0.6720187991042752,0.5982468486116228,0.5246650703022568,0.4491861100326292,0.4123082036060643,0.4712512983360299,0.5504703937989739,0.6266247426606655,0.7028668137949605,0.7772449624649695,0.8355239827537395,0.8435253383366632,0.8267084171739554,0.8108204460471387,0.8282297970502697,0.8329248620085443,0.8275414692825596,0.8205238618000994,0.8065724343608782,0.7986744743155276,0.8049689626194392,0.8054936420524628,0.7763033125063588,0.7267269947854005,0.6691884545752216,0.6053652628838762,0.5467937134100427,0.5451457049789508,0.5967900773042805,0.6534510436418595,0.706734881804876,0.7478018222646263,0.7762293041866777,0.8174415249133729,0.8797790612685636,0.941365310753172,0.9674321808469653,0.9174106432576844,0.8409577343065595,0.7617220317717075,0.6847261580043986,0.6033124375313677,0.5230127138294831,0.4465383404142071,0.3656809820199913,0.3077473863799421,0.35375335409847924,0.4320842061303766,0.5094369786594799,0.5875440023267295,0.6644337133771321,0.7394729976708645,0.8085365926429666,0.8435225452604054,0.8416283682993149,0.8171124942869274,0.8099006042047243,0.8200066783728424,0.8226040323447736,0.8105698019873961,0.79786113227804,0.7877294762583724,0.7962181914173185,0.8059664751242914,0.789549763516054,0.7432488946453022,0.6851195280595559,0.6213918799098748,0.5574532077563095,0.5452381337862318,0.5963073529161895,0.654869521607782,0.7047902900969911,0.7486846028240772,0.7823596853024211,0.8144562978645831,0.8702515464359071,0.9411135856752159,1.0,0.9825172665766786,0.913788268243521,0.8450003419266332,0.7645348414193138,0.6877147848377165,0.6080106458553602,0.5262838947668407,0.4467277397059353,0.4251162523505492,0.4945039415600666,0.5709539760240343,0.6500617038608941,0.7259641025459038,0.7992044514455878,0.852910460962093,0.8619756328241566,0.8492991911295338,0.8406373916831693,No
14,0.8560451907372999,0.8476255508226747,0.8311115801728127,0.8299816879117752,0.8287674407549469,0.8125044742673881,0.7974331199947851,0.8230069819292891,0.8482328372680545,0.8151752225798555,0.7577961513245678,0.6990056665136044,0.6387328954906049,0.5784012773867269,0.5152346354156105,0.4567557156871458,0.4033705123186317,0.3408338334519988,0.2782400327163451,0.21866592140843652,0.15592185233306546,0.09252445477716506,0.030220074943471432,0.0,0.044707447592845284,0.10572902569138024,0.16609569749500308,0.2293514879454677,0.2927519279734482,0.3561523826762305,0.4195457361310491,0.4818681378158167,0.5415295422374554,0.6044614827615872,0.6678609050607346,0.7312259121062223,0.7926406689716063,0.8528693880578126,0.906143926584986,0.9013890700598374,0.879254986629433,0.8545395294103242,0.8165379912491272,0.7726877375653897,0.7251036591292784,0.6753405572727916,0.6451060344426043,0.6687477174817144,0.7148413564426352,0.7571292630143364,0.8013328814367994,0.8339146107139231,0.8460306579996584,0.8314514091715859,0.8237234146826834,0.8264095977325387,0.8219387444558858,0.8041420316285389,0.8072106629848869,0.8320599051968156,0.8061796888477908,0.7498251475476693,0.6907233128275809,0.6312776517718178,0.5694395984815523,0.5097558894457894,0.44759369211735067,0.3868443233248048,0.32593825737905824,0.2628044050008229,0.2026563895419593,0.14140837836160702,0.09596797543079633,0.12429177475586844,0.18644213400262688,0.2498414041127442,0.3132418588155264,0.3766212062448121,0.4383718794890112,0.4983896672324575,0.5615501164158647,0.6249486520088803,0.6877638030870726,0.7473646352910617,0.8098559293897448,0.8700689623541538,0.8878542770854708,0.8674991003012231,0.8447651280981678,0.8114528797095455,0.7669925213461013,0.7201415216978546,0.6739193242002511,0.6416228977146766,0.6614137947161045,0.7107247667917064,0.7601304010681933,0.8014330970865421,0.8295640223188002,0.8434175688396165,0.8325766939133757,0.8269979663002319,0.8307509419883516,0.8239855134602586,0.8031870835037799,0.8100116728952882,0.8290814301905833,0.7953357925019151,0.7379178506882309,0.6752183249522912,0.6131061871124602,0.5533445890723643,0.4913041553297265,0.4316786600680149,0.3691956400196287,0.3094741852527129,0.2473602529379912,0.18816467860905872,0.16720813642814497,0.21360166950532872,0.2760029977760738,0.3393926297723597,0.4017515487592985,0.4613989465961059,0.5243079854594317,0.5877072850190451,0.6510882113079595,0.7128888703701947,0.7728696038676077,0.8360059358210107,0.8952763838050575,0.9055825685521538,0.8799547701557158,0.8610031829975012,0.8325257965058442,0.7906404440037993,0.7431783673939731,0.6953568524730437,0.6615370534944511,0.6779810626050181,0.7250172065513125,0.7742648679243962,0.8140480131635237,0.8406067023205408,0.8591803387460271,0.8577734781421946,0.8351305014666931,0.7960850197256372,0.7516680956721634,0.7094518425575094,0.6816500856100471,0.7145645174130307,0.7617641106431811,0.8070515200014623,0.8485440055583057,0.8755120246726739,0.8942486704704486,0.9248277777967364,0.9716261380552776,1.0,0.9593012329772452,0.8986659034453722,0.8354733135043304,0.7750895349352209,0.7137817503790453,0.6504226660462561,0.5870223967053827,0.5246089542471087,0.497143030050712,0.5453734178781104,0.6076580298042525,0.6671500877584586,0.7269828121899014,0.7845516373829524,0.8362609241819208,0.8486029540376909,0.8238947721618208,0.8241212929645477,0.8428346979488334,0.8445676131867081,0.8434743857609834,0.8553951526529836,0.8606333600809404,0.8431066240842169,0.8154228853683929,0.7753617711064507,0.7249483465637155,0.6792039323221282,0.6780165377493159,0.7233792052111581,0.7702601153328102,0.8137081133475091,0.8501550304216683,0.8756961360843903,0.8975591313056072,0.9326617811967648,0.9593362866356608,0.9185952831283672,0.8557336856590402,0.7943762578555053,0.7340373325661931,0.6707880139715162,0.6073876016789105,0.5443908550835093,0.5054089620735581,0.5450686855154193,0.6044671659487195,0.6659572236723471,0.7249219371368003,0.7826133708042167,0.8343374894222348,0.8498772213801518,0.8261231456548505,0.8260949006686641,0.8389544981514931,0.8399854314339338,0.8425751219107631,0.8587075455516179,0.8593657983469457,0.8374220293526793,0.8008751151028672,0.7555936565510365,0.7068463787790055,0.6698670403428794,0.6952572497802795,0.7432226433422224,0.7921602141381745,0.834569893359262,0.8702381736168965,0.8942381948251531,0.9177860127354166,0.9555970707057352,0.95642028819028,0.9021906884301198,0.8404500732373406,0.7805929427276548,0.7174972490170698,0.6541366884586837,0.5928104748202006,0.5350263587749633,0.5238146996666609,0.5786427978127754,0.6419497320460054,0.7046061732798352,0.7637841256683578,0.8217307151550645,0.8654713370933409,0.8634573216931546,0.8316422560352899,0.8230793341898506,0.8421894527106253,0.8464898934316758,0.8477545540011596,0.8643290570504123,0.8737065928889098,No
15,0.9290753800082868,0.9107777444256736,0.8988964562754337,0.9131870481461236,0.9285910158454964,0.9370249244384962,0.931912523080222,0.9213158642305576,0.9543841358792166,0.96454214682491,0.905168041202372,0.8251829677981845,0.7406108399832757,0.6598625012122848,0.5750986147787508,0.4893448918099266,0.4080172743687215,0.3242415763526151,0.23819076273921824,0.153858463046454,0.07303354774759396,0.0,0.012484426954715577,0.09336789665717816,0.1794467663130439,0.2653984225315602,0.34759744307100315,0.4303650511707448,0.5163757432245755,0.6024697558738945,0.6885164348560511,0.7718352485114245,0.8534523987280179,0.927227244328644,0.9335116771745154,0.9051885936664832,0.8616935476703819,0.8059637646861109,0.7404866327807856,0.6712601883058086,0.605441218210397,0.5443371524880776,0.5225092382894307,0.5716906270839164,0.6419857696658838,0.7188974868750396,0.7896279632021265,0.854785583463303,0.9154822077338992,0.9458230019963018,0.9244361130419001,0.9175991506756824,0.9395617270927318,0.9560860561604846,0.9574927054116557,0.9397077628457992,0.9283789368304629,0.9605002920490616,0.9577349335377416,0.8889682149581378,0.80729003270641,0.7226047700660193,0.6418851328895135,0.5566966320296648,0.4739466882280052,0.4046180741755616,0.34625831165991616,0.2888560653004709,0.2302079338568085,0.158170584981008,0.0735202738375515,0.003990382867079978,0.025678710382665004,0.10854326113832352,0.19463225856502586,0.2802289266129589,0.3612232122342296,0.4454837486384299,0.5315619327013905,0.6176196180584801,0.7012035997445817,0.7826810097803022,0.8673868001648191,0.9167915605264984,0.8969601731273867,0.8611553157703901,0.8104097140438634,0.7520864774692376,0.6847981823105186,0.6160598795355104,0.5492002517681379,0.48799154666345,0.471241818758195,0.524189126456785,0.5953747671808005,0.6723825438900043,0.7369975022600396,0.8056295789586846,0.8707954484453334,0.9240057337595152,0.9344265111354308,0.9156473049968478,0.92370894966633,0.9416579050135364,0.94973887735585,0.9546394561717318,0.9375472432482252,0.9324406289051886,0.9651251297587276,0.9534999662797092,0.8853611719997562,0.8029671199756715,0.7197541075124955,0.6380472426981482,0.5524537309515403,0.4709411251338032,0.38740120206929496,0.3013451410750081,0.2152511284256875,0.1291696874809954,0.0464546989429464,0.014539029447319884,0.07590927739628145,0.16096286001240878,0.24678028493633275,0.328291457555273,0.4118323982763343,0.4978894779576114,0.5839569833261901,0.6677915311141805,0.7490735030438785,0.8346948064437533,0.9074234204665806,0.9109121653838248,0.8779860985781817,0.8338967870182333,0.7754843486515558,0.7122925325021897,0.6465531052179697,0.5777058411066909,0.5105555863094969,0.4759243504736949,0.5104453744046289,0.5151122707143077,0.5450510197796115,0.6105509324831131,0.6814245968850149,0.7472409612761574,0.8078846183171219,0.8623236254191574,0.9037843479242444,0.935726390181254,0.9646355495591076,0.942928436095436,0.8689774856899871,0.7856753037611873,0.7041737954645787,0.6183567344309076,0.5322628703481064,0.4472917335971268,0.4086365788936286,0.47525074049752,0.5558296194668988,0.6407858215925771,0.7257470934137881,0.8064544810211906,0.8915575606412199,0.9694816111342608,0.9941514019728678,0.9846847309578614,0.9586970647349528,0.9707289527126944,0.9743512067178284,0.9663159916311562,0.957715623495992,0.9402853584582817,0.9466734641074364,0.9604618011238264,0.9347984108555696,0.8798506597956227,0.8136350450243238,0.7402031815423445,0.6756282038833926,0.6038916492293361,0.5346182100220163,0.5142213147932682,0.5709699287099491,0.6376656652299799,0.7040815064649574,0.7701538908260998,0.8301632126723076,0.8782350232446109,0.916027660293212,0.9481320545823156,0.9706752154358388,0.9133035841929712,0.8290879157231704,0.7483588630724333,0.6630953214806782,0.5770492723548714,0.5021172537564678,0.5202730019290454,0.6025976804020448,0.6882886672448857,0.7694662039375803,0.8532623950326933,0.9342926362259549,0.9903751098173726,0.9890372392825644,0.9614106187153779,0.9647856278316256,0.9785704345060842,0.9767794054071616,0.9625319510494074,0.9428221764880076,0.9549774971788416,0.9722782448474748,0.9448774846934944,0.8904268285188522,0.8243731431899225,0.7525449542484252,0.6808988132119022,0.6087955945040796,0.5614763854045499,0.6004907667616636,0.6662494923745551,0.7309395402162929,0.7983208580145104,0.8604026734039737,0.9069640305063931,0.9425925895068183,0.971211008222317,0.9842446796561036,0.9199726717155741,0.8395218466282456,0.7543288929821242,0.6682376379927107,0.582426821373803,0.5225023133583336,0.5715617622015127,0.6566678416790602,0.7379312646833619,0.8216901492111316,0.9040604551631972,0.9769527865969344,1.0,0.9780834624663456,0.9534731898587138,0.9603174766736036,0.9574382592714572,0.948309678556425,0.9331215837334396,0.9202853029095084,0.9373532777731172,0.953725530334817,No
16,0.671104795308661,0.6453310239953457,0.6171717442022165,0.5784594958355201,0.5328295043043031,0.4979848733971394,0.4667738989896514,0.4256081132117741,0.4025276217733816,0.3937195330077924,0.419508075409904,0.4650089521248682,0.5107207823964944,0.5558274576144631,0.5994377867714799,0.6321272826552452,0.646949113404003,0.6429159246137576,0.6401947298290046,0.6469043230189361,0.6567513651016476,0.6673735513602886,0.679121403961609,0.6870913585860011,0.6909016931323607,0.6922141310125968,0.6882497239913901,0.6909216427824313,0.6956188764773279,0.6977528420617841,0.6996992404053385,0.7027747082807515,0.6985419151267896,0.6942012348620327,0.6729019637055204,0.6471238883231453,0.6597711699137508,0.7019757534456265,0.7284921628039259,0.7113574083565841,0.6551684259071454,0.5888255162661936,0.5249730943747696,0.4562462835226334,0.3924047640150595,0.3224439488506977,0.25471996826317944,0.18973465573466253,0.11900318055100645,0.05056299048299629,0.023771743916785826,0.06623435853109018,0.1253553919621616,0.18961548056214408,0.257664127453518,0.3286628850555481,0.3996874052370295,0.4704100430028279,0.5353430437120533,0.6031321768993597,0.6741264074002825,0.7451481791331916,0.8131421722755025,0.8232856173732311,0.7720979111697773,0.7261059281788408,0.7013922911383236,0.6838105979973318,0.6696919070493027,0.6496016736177826,0.6181841194874135,0.5808889787354387,0.5407510962990135,0.4983281717959002,0.4541791451336886,0.41612799941603,0.403318458452454,0.4285119823694382,0.4718255429023205,0.5176796693970823,0.5644166567427332,0.6069319590385994,0.634020973088148,0.6401409442167573,0.6357264504281704,0.6396288966222438,0.6452157404449773,0.6537783342382771,0.6641681042931716,0.6691049586699006,0.6755091016980262,0.6784200179564549,0.6784447014296308,0.6784447014296325,0.6784456601921723,0.6791627283832097,0.6835403347913317,0.6849366883555951,0.6880921057005921,0.6890156602395007,0.6736975248632605,0.645507859992129,0.6451597420660263,0.6794196024718367,0.7144894640468925,0.7160206124576892,0.6644247542680662,0.5991330841291732,0.5325734779622783,0.4641546754643212,0.3997926319066773,0.330675876534828,0.26683331921547515,0.19683950941437636,0.12581727002243415,0.05543361050229378,0.0,0.012419643758210695,0.07429474662006863,0.1354663784904634,0.1847225624588401,0.2320559362178948,0.2794074597813337,0.32680036577260985,0.3772467053444729,0.4418786462622092,0.5127585778840563,0.5837831507345365,0.6546561191889974,0.720432716191192,0.7728819990108405,0.7519742708914762,0.7150111628457924,0.6950293669923192,0.6814483623781049,0.6775894498842624,0.7022354876604927,0.7153732559685554,0.7330990761765811,0.763963148284588,0.8158186547896119,0.8815344172301026,0.9418005540050676,0.9700037336295292,0.929835840138603,0.8605588229903149,0.7935930200272036,0.7279395082996806,0.6570805099162295,0.5860559370657482,0.5150566062634866,0.4509717191199886,0.4525059239546608,0.5033963494063002,0.5696526164695651,0.6405737752629176,0.7073603188419392,0.7483837486264068,0.7520162000072707,0.7339719107743481,0.6969350872383479,0.6834281892044635,0.7099041260715154,0.7202418567318768,0.7170167879478165,0.7179022175540425,0.7117176918967526,0.7112793673875738,0.7094683710186621,0.7050562674779425,0.7075602036375156,0.7073390264553566,0.7045710875484751,0.7000077079797651,0.6927737100703913,0.6875285967850732,0.6787458218203738,0.668831292030665,0.6633321152550201,0.6682521039022208,0.6626264060178128,0.6384367360990905,0.5982379045427958,0.5539125143804186,0.5092642601637204,0.462844726587688,0.4387745162701341,0.4661220683684298,0.5095154041922759,0.5546236147402325,0.5935770254384006,0.632759890110386,0.6665341462046416,0.6872278885965762,0.7039717893248197,0.7222844865645116,0.742425772634795,0.7804066041536674,0.8369880128532198,0.903183977007048,0.9655312482063936,1.0,0.9642323856509069,0.9011764679898708,0.8331945035616287,0.7621980793978728,0.6919839726914198,0.6280608991229751,0.5587781042420921,0.4903842279308765,0.47844610573755103,0.5329315460511791,0.5937476276280996,0.6630020361571302,0.722693800188614,0.7561079730947712,0.7555789532570601,0.7309953367363461,0.6917567503791088,0.6943730088466559,0.7236742310936713,0.7355799967012567,0.7311007484630797,0.7301943137314971,0.7267019345472602,0.7278816869378343,0.7242495679012898,0.7210751083059742,0.7209458058232933,0.7209009042296551,0.7172314110370265,0.7101974684991023,0.6989304852732382,0.6862166432662097,0.682379221113211,0.6724742679738468,0.6691227404697292,0.6731039014186707,0.6756482511227347,0.6580257268744101,0.623856680270754,0.5841647790368546,0.5395757242535698,0.4951892656321278,0.4452727513861315,0.4346729402319219,0.4724815279638727,0.5201494055826721,0.5595279102481591,0.5528655093054778,0.5759920751209088,0.6152768467067665,0.6510143528957927,0.6788174518331965,0.6981069433069454,No
17,0.6149672894501091,0.5993869866575695,0.5866327124426548,0.5680641578338531,0.5395583701213925,0.4969398745879251,0.4772662046346602,0.4673929320020179,0.43040388031204657,0.4029091423583341,0.3762252661016819,0.4174099393288856,0.4738231490546133,0.5119471524781903,0.5050921465974302,0.4700602570978984,0.4379491052189529,0.4273575473521541,0.45616874204685204,0.4987841397350808,0.5444080525367244,0.5859130283019677,0.6150784099800201,0.6243503398431561,0.620656740103109,0.6124716884490814,0.6206415177663848,0.6282082895233926,0.6301357672253715,0.6324120218113253,0.6378525949066091,0.6351200940828984,0.6243603838375703,0.6246885972038595,0.6439849252693698,0.6645955907235238,0.6712411913868143,0.6666741661511232,0.6255679527838277,0.5575346209499327,0.4876171348893051,0.4227584132963994,0.3565571709986063,0.2865464053173342,0.2190797119723803,0.15528435037561528,0.08568012987212315,0.021568707690865045,0.0018740107634047651,0.051417367170734966,0.11883527659854733,0.18888199710270212,0.2560362230861354,0.3200689593012934,0.3898308189587624,0.4599237335062997,0.5299195458844147,0.5955635766070039,0.6609612822997281,0.7300236945381003,0.7582637203265871,0.7087369482404869,0.6635871080809767,0.6360221259077806,0.6200473998176917,0.6044001727560319,0.5846414369644292,0.5602649210635223,0.5268507532341052,0.4900034945853554,0.4504704074624754,0.4311415802538415,0.453804813380905,0.4993648716864475,0.5472513680496632,0.5894430069895714,0.622680622080526,0.6316287486618298,0.6237326033042955,0.6185899062728216,0.6326989769362391,0.644903849463622,0.6492529878392169,0.6517404990016261,0.6500103913482279,0.6518574793936328,0.6419986380521018,0.6367169087963284,0.6401917980000104,0.6569238566299062,0.6642210653246833,0.6553548475590224,0.6261608819171548,0.5683754497054433,0.5017184076355622,0.4316663459781311,0.3615733457457425,0.2916466150927698,0.2282312457936789,0.17547905909113048,0.10948969429378007,0.04549456146235386,0.0,0.02740355102227665,0.09508474607180373,0.16122066950589387,0.2261386213874871,0.29606758374846465,0.3661605839808538,0.4362478963687294,0.5047599825178865,0.567949790513934,0.6371452974252149,0.7026544494514434,0.7447475699538065,0.7137537088913056,0.6586320309661616,0.6260518458191221,0.6080189910421686,0.5965156178592276,0.5819938958594438,0.559878742675518,0.5251528156235524,0.4895743244630018,0.4555177138203251,0.4333158863269785,0.452057426793698,0.495659053160327,0.5413965895490923,0.5850221540511581,0.6185734447635386,0.6307446207623343,0.6237103391789106,0.6207533891396869,0.6253285362530941,0.6331874233921592,0.6381614303840492,0.6430267110659919,0.655821378066722,0.6681827870547318,0.6657770502799628,0.6633756863377048,0.6498370680119802,0.6471578285165179,0.6518621015806341,0.6559518997558665,0.6467891706766459,0.6150640199352827,0.5714345906141504,0.5225383698083684,0.4791776947639793,0.4728991252375138,0.5078039429805162,0.5439706732283301,0.5787107437995284,0.6037893459091052,0.6197795406063388,0.6310280021265627,0.6454029753481053,0.6772262637611078,0.7299830741145042,0.789977677167578,0.8514424941352491,0.9125917716267306,0.9177384427619294,0.8613775594057441,0.7979647584033113,0.7283687806249736,0.6586664432855435,0.5948062856985851,0.5298220689399212,0.5153527014947821,0.5739940188295604,0.6335498242520711,0.6746947741682877,0.6892613921292875,0.6932728081280001,0.6818292688437578,0.6716301225099538,0.6683287555256986,0.6757726283933326,0.678699206612951,0.6777794789618076,0.6753431734535865,0.6777609518190676,0.6695700425155163,0.6567086096146703,0.6468068424689527,0.6549754302949001,0.6615457933481576,0.6494120631106671,0.6217722312894024,0.5819817721144799,0.536125062846669,0.4852698784245119,0.4634828869054667,0.4919070426924449,0.5321158144598842,0.5677437215672261,0.5947672639095868,0.6164661732155169,0.6353333209372297,0.6508151293400825,0.6719545695626589,0.7083111792746771,0.7643664608588944,0.8249239162627399,0.8778104625160686,0.9362863719473952,0.9944725979887518,1.0,0.9444154749073762,0.8775145828501428,0.8074686578813003,0.7397495540275251,0.6761340340720657,0.6065316045363609,0.5364388672678274,0.4663472676674377,0.39882253018667824,0.3895387183066829,0.4506276834847262,0.5149887034173058,0.5814638412747387,0.6442892941889834,0.6895440696169922,0.7022847440395888,0.7023873156453174,0.6888571611127486,0.6675801178135113,0.6540936970458128,0.6643857890259205,0.6692950020420015,0.6631807518850653,0.6574491212131975,0.6620308533857068,0.6549106521724145,0.6464374394125633,0.6503414670240361,0.6536413441596484,0.6468589120147913,0.632763978589168,0.600724629438249,0.5587498682053332,0.5123525813869533,0.4686170742359296,0.4672555581345473,0.4999708522992933,0.536083279308634,0.5682339398344641,0.5926551540129473,0.6108016150500699,0.6235830468814122,0.633480729012584,0.6566228740426899,No
18,0.9338581912386889,0.9366054718225301,0.9347240450204936,0.9383448884613518,0.9378101339467962,0.9224382372642462,0.8996946329720626,0.9201160455744742,0.9529769931645876,0.9633948591272016,0.9414040144888666,0.876922578640346,0.8078341268529511,0.7330860148243382,0.6576561533395443,0.5826457804359858,0.513042887147476,0.44001816094254254,0.3648606733457099,0.2946894265803244,0.22242468021671305,0.1515921721649215,0.11915104537468725,0.16731195292069426,0.24146680278608298,0.31127964519733564,0.3840283983569853,0.4594327910442431,0.5348626178989174,0.6095639577822175,0.6771871146277385,0.7385572007608047,0.8105707286857077,0.883881809198965,0.9273583954911679,0.9188521731033096,0.8968447052302692,0.8748321749013507,0.8412637053997221,0.8040202029568376,0.7751627054815317,0.7764180022069042,0.8104928183146335,0.8584491429993247,0.9061573088677278,0.9259869877205406,0.9139214151620066,0.8995522830739094,0.9053877155181804,0.9136093037822696,0.917003446312894,0.9126502614270368,0.9123631888665348,0.9053409889117312,0.8798312059596723,0.8828766261290809,0.911604163666736,0.928418437877202,0.915938670664635,0.855489411365605,0.7863603778578679,0.7130269579016139,0.6411616571193673,0.5706069754263935,0.4956033240645582,0.4257380556987767,0.3645204202065807,0.3132364366123729,0.2554174837265817,0.18709544360732652,0.11271275007208725,0.05419939343687197,0.07391850277194678,0.14648480161322086,0.22182877568570591,0.29335731549185584,0.3642396459757013,0.43952881780218345,0.5149575472788851,0.5893731194730817,0.6584222340349405,0.7325803946749262,0.8078782083728543,0.8745418391606522,0.8917942315469195,0.8835149584377343,0.8873445137220636,0.8663209728891071,0.8284460226014337,0.7885434184776082,0.7695633278901769,0.7884523681674326,0.8321682069019679,0.8833655574721778,0.9267163607464438,0.942632982375966,0.9283135709947552,0.9156580069190892,0.9203990132892578,0.932604732751157,0.9383754652482952,0.9408082456220838,0.9451691035164796,0.9268514021940071,0.8873044660813761,0.8670341921344876,0.889338800656677,0.9212873178615631,0.9197277083933508,0.8848417631056952,0.8191114613257767,0.7497820082387666,0.6773511367756165,0.6076586237604028,0.5326281019271798,0.4590772280609089,0.389803326547534,0.3150117144707181,0.241512822192714,0.17221131610785378,0.09804013748032037,0.03018408836062003,0.0,0.057185107094590786,0.12771104702182245,0.1994259064816072,0.2747590905916546,0.346363065861656,0.4095770649404804,0.4817593161268644,0.5510646763974201,0.6259122586818809,0.7012927821316984,0.773367419421518,0.8331355582825158,0.8417284126167527,0.8419572294400691,0.8683956973673969,0.8916582668505354,0.8698413411410885,0.8458393865849717,0.8764872782592795,0.9116510251965056,0.9156274278225356,0.8896689901371694,0.8686402222600479,0.8822846625961013,0.9134269089577368,0.8803840525685976,0.8111217667975189,0.7407423612136111,0.6655420535334505,0.5928957999431398,0.5422189595590007,0.5827951546675615,0.6564727801964977,0.725494453845145,0.7978561873663653,0.8662832685046157,0.925229060281852,0.9497817702831208,0.9531587727561288,0.9288971967203964,0.9031049348232364,0.9208268812275798,0.9569624436532096,0.9703239839061416,0.970050487904543,0.9611225293085344,0.9584502413550908,0.9489884963221584,0.9403360519581192,0.9491253049538864,0.9648965835986026,0.962046465115642,0.932472113317514,0.8823079364397425,0.8328828329412442,0.8024065192925888,0.8210023400237193,0.8598222254949545,0.8951564683485279,0.9131741509318476,0.9133123175054482,0.9291653842495591,0.9697714382278724,0.9531867542261416,0.8825016884698892,0.8070977983357767,0.7333833636521471,0.6642005442982767,0.5894711189564991,0.5140873777761349,0.4504901119154289,0.4732085942179794,0.5429482921603742,0.6181578919966101,0.6894473002143061,0.7605454657320364,0.8337845690593423,0.9016249908552496,0.9544677868644376,0.9602559063510736,0.9515665693083268,0.9279270805693814,0.9070389312707808,0.9271456134096052,0.9379374157896726,0.9397699258406416,0.9418774782606671,0.9397987201909114,0.9324608104848954,0.926436780204134,0.9352007668396302,0.9468344613501106,0.9468830005514784,0.9185090657185716,0.8718984325643823,0.8252051600286961,0.8004035543733491,0.8248579323072557,0.8633224561927714,0.8951942199241468,0.9177812178039004,0.9398332510759791,0.9618123255587802,1.0,0.991392837055587,0.927787446687584,0.8551483246051731,0.7817749209513757,0.7124210475211741,0.6375473506187631,0.5621168786421611,0.4868145045867712,0.4299136392655392,0.4693290072410763,0.5430099909356899,0.6120367819321936,0.6860255741972984,0.7559357607738987,0.8283353962743406,0.8985294037915305,0.9646243500912116,0.9957611274775744,0.9890634797684202,0.9762866452221104,0.9429000059514552,0.9310986266966094,0.9576883205784056,0.9622818910320464,0.9596851670705754,0.9631479172681341,0.9597218727680016,0.9574255857741404,No
19,0.5647479042805325,0.5573517332039172,0.5662363850165039,0.5786659502152337,0.5878944277308932,0.5749678400965293,0.5607486117356367,0.5726136332034489,0.5989100224318543,0.5742399576445739,0.4958567428063335,0.4070904649246229,0.32002788732486864,0.2367315488020109,0.149493982392215,0.06717826380733072,0.0,0.021059849957884014,0.10027037649046876,0.18872917335889214,0.277759230917198,0.36442868718744015,0.44799361600745946,0.5366276337563546,0.6256824622232885,0.7146762784669002,0.7900533165639475,0.7617565530935319,0.681787499518674,0.6079733772780654,0.5483937860762244,0.4992184230910289,0.4529414546029388,0.39863094745511296,0.3374134698906069,0.27528636077038804,0.2124373120437274,0.17160533019677227,0.20265004849815849,0.27335135241055786,0.3465095695727648,0.4194508520374461,0.4892731056260479,0.551128004493956,0.5828210219658979,0.5815315126515271,0.571794852715528,0.5708438575304061,0.5834500848305509,0.5859989664469489,0.5653325693929138,0.5625102703695902,0.5922043473070374,0.6077679009273175,0.5487295733600607,0.4660472041825036,0.3823567218901206,0.29661016874233825,0.2121746488890871,0.12753261572072128,0.05979101924717056,0.08289523574552671,0.16537934825508505,0.25224237081142176,0.3356077333525315,0.4241424742087115,0.5131969794676342,0.6022278955698331,0.688895725944879,0.7676602536925766,0.7735834386433541,0.699837181794379,0.6260955300736825,0.5673859540616634,0.5198578698275774,0.4709515313307239,0.4172536822554133,0.35837270381955355,0.2927889273406311,0.2358544332847537,0.21531030163387652,0.26209731800131164,0.33304913003020553,0.405323549091594,0.4804555790672628,0.5437787329326983,0.5833875257512329,0.5856331275643486,0.5741372082004429,0.5695397684930091,0.581920061062119,0.5832239715006623,0.5665525160080932,0.5633008370239817,0.5931381880615021,0.5936449292820632,0.5288013117293048,0.4576968683825858,0.3748523969817536,0.29174665191660865,0.20341286741784514,0.11523616445933915,0.05312959592597855,0.08780373011539244,0.16964209185325352,0.2582997956754226,0.34396537354879875,0.4283507648937098,0.5172108217591901,0.6062659080487797,0.6950513190100963,0.7575558737008762,0.7108665024978161,0.6293562423647482,0.5629878590155867,0.513912230419432,0.4695084599617668,0.4220609951755129,0.36149588997642346,0.29900029853435417,0.23789785957306955,0.1968775678551488,0.22336589148196,0.2938795383168683,0.3690667122785366,0.4415577039203008,0.5086757532536309,0.5649718223544707,0.5896383131795799,0.5910462762195993,0.6078906110018284,0.6121321528343945,0.5908748862478989,0.5386685202016684,0.4732984420303085,0.3986121403204482,0.32203092754287466,0.2535767592955881,0.2388789911650847,0.2951710867623861,0.3579338496529895,0.416826355378313,0.4700988618659042,0.5137739401588398,0.5623986450526065,0.6223825677652562,0.6970752830031145,0.7774533218118774,0.8598721398577737,0.9408209395974326,0.9552167971859468,0.8835545657292899,0.7982874120136586,0.7093204930625324,0.6202718547500435,0.5326305182154271,0.4495833661897083,0.3614405281770557,0.2809606279591376,0.2941291472642585,0.3747805538753887,0.4597490153473324,0.5424633049956183,0.6152780512153261,0.6323536843156686,0.6055077956307137,0.5905578000241328,0.6085069061305032,0.6085565605896733,0.5997393268811045,0.5954638127930291,0.6050918346916184,0.6105566942041168,0.5894051329203943,0.5371133781270868,0.4694895967429517,0.3971315167892972,0.3249032038581013,0.2614491771493127,0.26579285669569896,0.3233432168370628,0.3872553560188808,0.4473869711339794,0.49843748141096295,0.5466879893575908,0.594400952392682,0.6604180274053281,0.7370206017326296,0.8173739343358003,0.8989173544512029,0.9765847770794972,1.0,0.9305256195164974,0.8418099215475806,0.7527548352579929,0.663699748968401,0.5746446626788132,0.4856808449976547,0.4003842973045827,0.319160517726372,0.3059396932738795,0.3850734990968229,0.4680246646581542,0.5527803666184244,0.6266814324379216,0.6480757199876718,0.6176771776286795,0.5884390347948681,0.5987805998804668,0.6116938407023768,0.6046836526750045,0.5941562396689734,0.5974520221818579,0.6092534156597195,0.6049303097494111,0.5706934552385429,0.5118682801970348,0.443743742196086,0.3706245288217677,0.2992798147813033,0.23451786764676866,0.21152546041852405,0.26449118638649394,0.32985435897311965,0.3912298581392405,0.4487527872835183,0.4960871002523709,0.5437191025022589,0.6001141804901454,0.6704075753392066,0.7495267001269649,0.8310555270010899,0.9119064722039372,0.983261963600456,0.9715754474584619,0.8928821279847857,0.8069393944939337,0.7179355692004533,0.6289258433203634,0.5428656262981503,0.4588239004222793,0.37169264768377375,0.33809963144358035,0.40721217040962204,0.4909654173258585,0.5724091168245055,0.6261090292529231,0.622909068441703,0.5961568864820733,0.6019613541057135,0.6103215005626158,0.601806023233696,0.5909579054480806,0.5840770769369977,0.5901119243720837,No
20,0.3378395218763577,0.3805053131595042,0.3563445134018812,0.2695070953795471,0.18523744510984907,0.10062358068535547,0.07233602141190243,0.13966397722135926,0.2235269755505076,0.30673693140975705,0.36702242621136,0.44315828248928896,0.5342344022089802,0.6268128314802595,0.7193795692055314,0.8043879708317054,0.8014479130963212,0.7403430030889377,0.6979122976793355,0.6661029368923144,0.6410308728099126,0.6082479330333321,0.5612654311139955,0.5044917041160495,0.4456238833952175,0.3911750469996711,0.36629736233462906,0.3979726652574152,0.4591762688379104,0.5278609962128444,0.5854467812677069,0.6357683040594313,0.6681643905729457,0.6639025642870342,0.653659658042923,0.6529150434676954,0.6647532501075564,0.6769007839665739,0.6866005994663555,0.6952288753852693,0.6883614223808616,0.6738381688403798,0.6741678823183809,0.6878867308006356,0.7167950634128137,0.7114176993049155,0.6393077458433607,0.5607326618411193,0.48873446788645,0.4060786323397816,0.3188522783082792,0.2331769568481372,0.14952166659350108,0.11976468621295333,0.18516382370045448,0.27696636460922464,0.36814523279607614,0.4522314064339295,0.5431941859843652,0.6312517774347193,0.7172181173912755,0.8037419667330279,0.8093309687195647,0.7510271193158058,0.707976461349378,0.6858135205541884,0.6571274286924749,0.6236944748940839,0.5736039329345368,0.5174378160614597,0.4574153898019782,0.4100970273562892,0.4106398575601236,0.46578455433136895,0.5296377480214423,0.5927988226766088,0.6449795089112962,0.6775893026134563,0.6857127578174436,0.6762375242279113,0.6680660443385478,0.6836385137082166,0.6969164982716594,0.7007030471296349,0.7003012857996089,0.6944766661432249,0.6712414643972895,0.6636526473573936,0.6742333916854424,0.691303168357285,0.6516526625736716,0.5723205404969873,0.4847617150445132,0.3994849327807486,0.30923685480928703,0.22505847187812789,0.1343986981511076,0.050992783068655616,0.0,0.04841130892756529,0.13618836527328027,0.22872424018733106,0.3213060183126521,0.4134434747826412,0.4985247661104093,0.5876286188010706,0.6798912608128929,0.7622049871192871,0.7764879014516817,0.7223808364391782,0.6781657075269445,0.6480534136331022,0.6190137466140782,0.5853343888413758,0.5354850822089225,0.4772804070534671,0.4177412656796946,0.3611614635726241,0.32720937022560115,0.3545681762102204,0.4185492882659989,0.4824487733333585,0.5421486048898934,0.5996323124265421,0.6512944404244305,0.6571307547363388,0.6458197990704031,0.6346794798305497,0.6364907081643916,0.646716922920543,0.6584438575581051,0.6597125877444401,0.6812856468638491,0.6906860730818716,0.6870336609072114,0.6739070070131628,0.6766010624306817,0.6903067566428982,0.6970527205370942,0.6794261857129027,0.6300204362375621,0.5723280076593698,0.5128446855444198,0.44370318727032987,0.3843983803941569,0.3842289040012876,0.4416094852049057,0.5025487221959819,0.5579812154051831,0.6075655445068644,0.6432678891355811,0.6728435142959932,0.7039021882202325,0.7455487933799063,0.8125235487465434,0.8893874028822375,0.9599564052052298,0.9600692000855262,0.8770701385389463,0.7905039660098612,0.7031162507362767,0.6108466399586725,0.524529498953531,0.4368665552002545,0.3529604583470445,0.36339411989117787,0.4497138112691996,0.5341715938027534,0.6199985988410466,0.6982904441743445,0.733657121189198,0.7225652384698431,0.7009846847381205,0.6997723267711349,0.7173483876848745,0.732129416331013,0.7343183234643691,0.7361448058003199,0.7275268439386908,0.7191603730882414,0.7073462578098726,0.7162288308857598,0.7246777270933679,0.7164802031421784,0.6844491741354293,0.6393288964336712,0.5796190881852137,0.5095608580504225,0.4513305545324315,0.4526556960966184,0.5103004302604537,0.569565861529931,0.6228279165695574,0.665669732561218,0.6962037606208407,0.7228332191638847,0.7485513574727045,0.8041769773009846,0.8759332645492877,0.9520527633028566,1.0,0.9496761312194582,0.8583451318289628,0.7680172840079771,0.6837136751230728,0.5920446056090438,0.5005021725134076,0.4186111614436776,0.3976718939151012,0.475011142932553,0.5605963008271735,0.6457945104966114,0.7252644273112578,0.7631377101614074,0.7509984753180692,0.7243756905447745,0.7101848905705515,0.7169086476217932,0.7248482622289198,0.7234713842292935,0.7141151040623621,0.7087057024739225,0.6962244401893594,0.6885751508086144,0.6904826302741796,0.7004309659670684,0.7051902599541535,0.6753613071801474,0.6288021680787326,0.5735697110356983,0.5070002766589397,0.4431307706517711,0.4191382278739349,0.4676140834056282,0.5263408201558053,0.5788766914854295,0.6298472405625201,0.6646132974011459,0.6932886412816832,0.7197390384991746,0.7627041220273543,0.830427767556948,0.9066759743011956,0.9749930442604238,0.964722457891476,0.885742987762145,0.7943126597491119,0.7090267364113149,0.6201722498599787,0.5290183188860467,0.4895385702784581,0.5544355605336397,0.6379590888567745,0.7156078950239211,0.7509258927669493,No
21,0.11326282877814098,0.15946881698447868,0.2276192845542941,0.27348148690542873,0.3134275146947212,0.29952777584054435,0.2456141012961381,0.18766328829000245,0.143793955661919,0.12209923923857335,0.1560230054418672,0.2126572266856888,0.2745432182716605,0.34038993771163306,0.3968621664791254,0.4338752750078523,0.4507552750537875,0.4462455006061805,0.4378347185909173,0.44804728990313136,0.4563220276397539,0.4684119771617044,0.4788865088053,0.4885968267361205,0.4886321551058266,0.4658863328257306,0.42802223401644457,0.4296927877985015,0.4658229735901352,0.4967741258856757,0.4657342663528354,0.3897052919314801,0.3100968533423929,0.2270473156629689,0.14698502770055355,0.06068187585291929,0.0,0.029006059037864906,0.11074492616139242,0.1999567088412044,0.28926092906490003,0.37856358863173534,0.4668161332758876,0.5470298188940801,0.6341828330290669,0.723377988580191,0.7948304924370222,0.7589473954992859,0.6814329450696996,0.6059204058440775,0.5372746595731577,0.4830570503853073,0.4548225869490874,0.4341502805354833,0.4096657794505094,0.3717607965007255,0.323202495301798,0.2702880632895004,0.21575387510542865,0.16134592764437605,0.12717869365683465,0.14642369399667032,0.2020000294264972,0.2635922597598539,0.3250740226649387,0.3837485275021613,0.4235450671996481,0.4363888960163871,0.4407546870300021,0.44080948843713297,0.4428708210713384,0.4533958336580721,0.4642159387069616,0.4741154184941461,0.4776770450627461,0.4750234572770495,0.4496928364755608,0.4223667747555011,0.4411399448987881,0.4834236049747072,0.495460753980885,0.44153094721952457,0.3626717239366259,0.28029580102742546,0.19857123571021476,0.11761764148143496,0.05483282704197778,0.010879792917948716,0.05795977979515433,0.1381096638550774,0.22702310923535274,0.3163272000241533,0.4056314202478475,0.4949356404715435,0.5842276254346614,0.6709342649681032,0.7445323835511479,0.7842172284630962,0.731096628367317,0.6516399928184888,0.5781902978171118,0.5116106036962254,0.4646815238031599,0.4421859299001485,0.4312526481014458,0.4072856919979495,0.3696085442416739,0.3169924209796484,0.2640792279166182,0.2093403463289334,0.15494182381000132,0.12453075653714896,0.14507467418706055,0.2002747518906467,0.26292098326186,0.32523727734913943,0.3827166437755263,0.42184271330836975,0.43664676441896977,0.44076422668772497,0.4400092556721116,0.43804365655843397,0.4502515620122354,0.4559099511937729,0.4646710996100414,0.4653996160814191,0.4624868333104615,0.4378684348517161,0.4104208300660779,0.4314175190750691,0.4722500190418269,0.4942052370306975,0.5239842526012437,0.5246356116937296,0.4889221402661514,0.4664056021882434,0.4918305801306631,0.5063363264486214,0.5020991516688869,0.5008830680742091,0.492907172262033,0.4836046352310997,0.4771339850095602,0.4718395833916673,0.4775117760651233,0.4807431957705746,0.4698471270347,0.4611596248789056,0.4262104198522085,0.3761164450382779,0.3159912702765231,0.2532416429252027,0.18883433042529352,0.16561179274093707,0.20808622761519624,0.2644691736673026,0.3200044488900071,0.3714991231045848,0.4158579354725145,0.4490841043016023,0.4698725135249993,0.4875978847181879,0.5290507318185382,0.5949998687247355,0.6694860475216646,0.7486930898333102,0.8284678924940854,0.9092007145906996,0.9762558735670404,0.9691612588302096,0.8954753603917138,0.8079588097001926,0.7264392092372025,0.6412281007860334,0.5519873118344398,0.4660742076654565,0.3881988618448917,0.375585385134658,0.449087629751274,0.5178767942578182,0.5415498036324442,0.5265208776872419,0.4881179252812074,0.4800111245151018,0.5081622734906033,0.5188220240275891,0.5105283447960394,0.5064377218263469,0.4974852551469253,0.4890616428046062,0.4766499325860025,0.4724616100777388,0.4813637044765515,0.4794398884598039,0.4696884575353735,0.4452022642877645,0.399194374624011,0.3405554795869026,0.2788983014347006,0.21389774175116205,0.17310861955896528,0.20513490654308408,0.26285834856770074,0.31883249630835064,0.367072054590696,0.4116339475661803,0.4486806366335141,0.471727819072943,0.4915886737689503,0.5269889642751535,0.5921571816548055,0.660197279668411,0.7226912567497961,0.8029395022324441,0.8835741149463008,0.9612665919302236,1.0000000000000002,0.9455172085533408,0.8659465058414735,0.7777548478023977,0.6885085165554841,0.6038190462504358,0.5218521427401137,0.4328457191755673,0.3474782677070589,0.3361321553152929,0.39494604036588776,0.4536581879967014,0.5173265567982839,0.5406963921405901,0.5239999117546377,0.4833860288227625,0.4730691230359814,0.5031512777909406,0.5190015171317583,0.5195227893386971,0.5164068830231134,0.5070787909435557,0.4960644773578091,0.4841251434093874,0.4827482307496329,0.4870523618552786,0.4832056010297621,0.469095554022603,0.4371304746378344,0.3837783304106326,0.32455466963861745,0.280571511631216,0.3125019966903217,0.29662207976802035,0.28019381263997634,0.3247250609789665,0.3755634564265173,0.4161725314180347,0.44914620256920057,No
22,0.3085527403866014,0.2755077116868091,0.2942320718798833,0.3428075803076117,0.34051360978696066,0.3865890874154549,0.4427931707786624,0.4990726280686412,0.5504081123809036,0.5622399845746237,0.5675369993277567,0.5711628180124174,0.5722258923859843,0.5682981233658311,0.5457082643054173,0.553881748392247,0.5743832316642831,0.5402247630236553,0.4671623851432104,0.3917432423124506,0.31908721243183197,0.2407564526532926,0.15821108367514625,0.07608672105961822,0.032785987908692034,0.07923970759218779,0.1517236892573831,0.2338527055269424,0.3177928387632364,0.3972604762572299,0.479930515061706,0.5643605435945663,0.6473911991542406,0.7266756812043601,0.8102821165141919,0.8732744948322982,0.8331454262203294,0.7538438747973447,0.6734357170899204,0.6000609324087448,0.5371207397821464,0.491180392128126,0.4511149973331025,0.400390989562147,0.34323492908679143,0.28748632747864244,0.260743628358908,0.30049612689385063,0.3697568143518853,0.4382634488864433,0.5018087567235406,0.5393444922088716,0.534045784385975,0.524544134737441,0.5223247069660969,0.5241475686490539,0.5089800051587897,0.502751388465878,0.5267529771497973,0.5335576799594054,0.4785108514310711,0.41081130441370906,0.34171567284052273,0.26070603926556923,0.17957038731385122,0.10021060357419163,0.026493087540432225,0.013111214535477369,0.08115656894582267,0.16367878168545102,0.2428968643419711,0.3265563094538283,0.4101334786434153,0.4893288479421674,0.5726484166770246,0.6570788081521007,0.734139345752575,0.7265654247791028,0.6527369277633402,0.5786920389184081,0.5137706727134045,0.4631990759871861,0.424860115740494,0.3760972426180244,0.3202808954578585,0.2634384428174809,0.2384534841382283,0.28119833468652244,0.3496016945076347,0.4179218992518629,0.4842425132018172,0.5359462987660778,0.5459797560241305,0.541070656448078,0.5462135272336283,0.5528054486631545,0.5529248050858434,0.5386643129178946,0.5430419576116622,0.5624537851173145,0.5266998664291983,0.4516204984610245,0.37725408934372695,0.3053031555887149,0.22487490998152304,0.1442579150782911,0.06340687277906687,0.0,0.031935029849341934,0.10944366191674038,0.19254976859040207,0.2717409650983602,0.35509343123852644,0.43942183154848535,0.5201969759214479,0.6012671894357474,0.6856287411916931,0.7685210051048387,0.8013136390136989,0.7373022137933075,0.6569309397410329,0.5829267218833655,0.5244417547300443,0.4811790470246254,0.4403278054345735,0.38728899882337775,0.33097541526338603,0.28995489295384025,0.31914658821758346,0.3761237440717559,0.4305022437699232,0.476528418282737,0.5166591117706002,0.5696568442950064,0.6374765314710903,0.7126911034915385,0.7900190829570263,0.8689768552706382,0.9487280252432913,0.9922927129411226,0.9401484632232008,0.8611599209604605,0.7770731770691705,0.6928328078660521,0.6126277694415437,0.5309372437636047,0.4465329923141156,0.3621170422443808,0.28029837892149445,0.21800523485654846,0.2550516376839305,0.3336368851947157,0.4002706855307929,0.4719041770419755,0.5467012890919513,0.5868691341873938,0.5791449789046131,0.5569621186961763,0.5710677457761005,0.5746195904221695,0.5715339777469653,0.5656671942671606,0.5650776137419521,0.5696932829092677,0.548511879322933,0.4946326264093442,0.428190568306381,0.3560570844511707,0.2903847753409681,0.2745228880794033,0.32755439183098456,0.3839125451194082,0.4328283948527677,0.473518908995521,0.5218177276787507,0.5871785364097474,0.6610528461665556,0.7377627579002505,0.8113453220483428,0.8825576415050419,0.9573157915570228,0.9890548284374849,0.9354777314301738,0.8602287327088269,0.7802637171600518,0.6960432247792064,0.6116447400362105,0.5300541286601895,0.44976066314817376,0.36550383077971216,0.28243882368999884,0.2444594182563403,0.30864248992218113,0.3884674299791536,0.4672522114945014,0.5367893449561768,0.5612415251214639,0.5398273255737004,0.5289703735206065,0.5449327341175184,0.5442594897211267,0.5431520620270264,0.5491637701424131,0.5640800534283564,0.5566877057783214,0.5131810675097518,0.4469443302535302,0.3752323722326957,0.3116855243754516,0.3062688323238853,0.3613264802721373,0.4168102043213938,0.4664173285066321,0.5066365962156502,0.5554650448081094,0.6206547462139175,0.6939945055869071,0.7708348990345312,0.85034730176019,0.9284036173460394,1.0,0.9975899509461098,0.9245766426904909,0.8408643628760827,0.7585505597730592,0.6788493135283628,0.5947552030537987,0.5103325260567698,0.4282167792850417,0.3510747782545679,0.3293858032695499,0.3884986294890761,0.4554535591929877,0.5317792961251487,0.5889825751494621,0.600092992658552,0.5744687757391426,0.5732993887872527,0.5910865988317412,0.5923803950515963,0.5925955150956658,0.5873733162168616,0.5854147443813705,0.5754738467828776,0.5298376892100028,0.4680390234797082,0.40226791422688135,0.3588439426681923,0.34714034858808274,0.31044451727347355,0.3158239719598919,0.3729412877811106,0.4233060379683994,0.4354626816897801,0.42678087761164696,No
23,0.7987022052416688,0.8074330597014878,0.8211266576363692,0.8285339640639033,0.8287482202666416,0.8256720075949298,0.8039546221068161,0.8159253098112165,0.8509938687125849,0.8645430781679708,0.8279522788677125,0.7560724496628697,0.6807291534722039,0.6009891972255768,0.5225531216288508,0.4444370763916159,0.3617838315702453,0.2793111996307536,0.20229066266801432,0.12360716962770403,0.06314613474996532,0.0774957042330412,0.14971122137079276,0.228752909704014,0.31147959968527705,0.3942457193802576,0.4743996549477243,0.5510391570467144,0.6334045711720826,0.7159965133700112,0.7894445177934348,0.8352361964688568,0.8219233968844729,0.7980127439182312,0.7709458991592635,0.7326214914090392,0.6803409146383668,0.6226186257746309,0.5674877775030303,0.5200473051056849,0.5174161514019393,0.56668903799942,0.6309521192033027,0.6977112878256679,0.7586937972441026,0.8130513649024695,0.8458496143307588,0.8388849985148044,0.8410197875521164,0.8557023115885332,0.8720667503734383,0.8835179511439595,0.8775371349911554,0.8663165147080478,0.8855830873064272,0.91334398454293,0.8965589418922078,0.8312619255674532,0.7546192642152487,0.6785999896118426,0.5977590160019453,0.5160137209655726,0.44000281425630017,0.35862846296355744,0.27647381506339386,0.20018616825255955,0.12385553693315955,0.11289815215811815,0.18405247113838494,0.2604274688780146,0.3426622042107585,0.4254516038531096,0.5082390497952334,0.5899984550900976,0.6660241556267381,0.7473815730890441,0.8299897983130877,0.8934919969654821,0.8795046732823042,0.8456834666199213,0.8091692273617004,0.7682890852644344,0.7231526949556901,0.6663068518303692,0.6048075631524286,0.5478776921489723,0.5035211388778047,0.5037197732007681,0.5563525965675193,0.6192242218188388,0.6854503806422738,0.7493514532284826,0.8012840260468093,0.8258054111721114,0.8155735349626714,0.8083214565396344,0.8185757714408504,0.8254250906323017,0.8242384038263466,0.8084285176477637,0.8054180640332209,0.8289883124101334,0.8406760308607851,0.8019308910486456,0.7289889979546553,0.6518591953991328,0.5753440960851981,0.4930388231132184,0.4119895580241013,0.3358784306484155,0.2538946914689326,0.17114203629569846,0.09144549127823642,0.018208717117844664,0.0,0.0695098120509472,0.1503811657922277,0.22652189717542334,0.3085473084465675,0.3913360111393596,0.4738491717580342,0.551029985374401,0.6305160386909541,0.7131897216527121,0.7846544054090354,0.7936060140276331,0.7704916319227881,0.7362758281709274,0.6929890936577439,0.6387326887722771,0.5783999085889449,0.5206488325147096,0.4712905479590153,0.4608850700763922,0.5074151103295381,0.5691694493337649,0.6369185870464582,0.7057368974503421,0.7643989605015742,0.8098564637208676,0.8186254318878614,0.8117230555053836,0.8173547890468329,0.8337486272118975,0.8550463875759495,0.8561967678806672,0.8417325439871377,0.8424431023159789,0.8524220002660157,0.82968037963395,0.7821686433132289,0.7186447257664308,0.6532556137485388,0.5877709093174937,0.5261759084746052,0.4993521577989679,0.5426492161234557,0.600319269530545,0.6573896388674898,0.7127687304852743,0.7566510462577678,0.7912656056943876,0.8176576285336301,0.8495840173324312,0.8889411684811792,0.8570058172827261,0.7800119260203036,0.6972895013058242,0.6145270325714576,0.5414079246845012,0.5615389905485131,0.6391513669447402,0.7154073409634183,0.7908407663137753,0.8582308571090207,0.8769099969174261,0.8645454117107012,0.8399872658343028,0.8380327427547232,0.8546039665253669,0.8541264673628823,0.849373517148533,0.8419677395335747,0.8370857937653506,0.8502248810922113,0.8485638144248486,0.8168085304482904,0.7606855992937513,0.6973387727236908,0.6352247821315913,0.5740059373697894,0.5430667679335828,0.5842749492766455,0.6419956940037534,0.7002219715974187,0.7555727334582683,0.7986684722784181,0.8407790030048377,0.8761530632947572,0.9107937062986886,0.9644699359796582,1.0,0.952215036010616,0.8750995519590539,0.7929960483879626,0.744495076371855,0.796843734374119,0.8704473002438742,0.9313870227565182,0.9465910660076592,0.9375004219558922,0.9048246410335176,0.8971985533507327,0.9157151176439928,0.9093009993407914,0.8975615194516195,0.8817946076102434,0.8678629263024982,0.8745116088572753,0.8748744784663733,0.843689935725453,0.7909602470336512,0.7342511392207105,0.6757598801553824,0.6138315485421248,0.558486833430478,0.5655875533879502,0.6191624323551495,0.6752305874674824,0.7278858848560974,0.7759688611720355,0.8078026611409796,0.8372191794880861,0.8699028817102787,0.9249986150209546,0.9527876887194476,0.8964262247983255,0.820832713841823,0.7389001691896251,0.6562175196057116,0.5911866576762371,0.6294274155713722,0.7070281593856367,0.7837655799774996,0.8555044930262974,0.8954002546581117,0.8908196873651086,0.8675291497322033,0.8380615998692873,0.8491144889703257,0.8555880780847469,0.8558690970331513,0.8478506358540476,0.8351781273072747,0.8293790427705252,No
