,0,1,2,3,4,5,6,7,8,9,10,11,12,13,14,15,16,17,18,19,20,21,22,23,24,25,26,27,28,29,30,31,32,33,34,35,36,37,38,39,40,41,42,43,44,45,46,47,48,49,50,51,52,53,54,55,56,57,58,59,60,61,62,63,64,65,66,67,68,69,70,71,72,73,74,75,76,77,78,79,80,81,82,83,84,85,86,87,88,89,90,91,92,93,94,95,96,97,98,99,100,101,102,103,104,105,106,107,108,109,110,111,112,113,114,115,116,117,118,119,120,121,122,123,124,125,126,127,128,129,130,131,132,133,134,135,136,137,138,139,140,141,142,143,144,145,146,147,148,149,150,151,152,153,154,155,156,157,158,159,160,161,162,163,164,165,166,167,168,169,170,171,172,173,174,175,176,177,178,179,180,181,182,183,184,185,186,187,188,189,190,191,192,193,194,195,196,197,198,199,200,201,202,203,204,205,206,207,208,209,210,211,212,213,214,215,216,217,218,219,220,221,222,223,224,225,226,227,228,229,230,231,232,233,234,235,236,237,238,239,240,241,242,243,244,245,246,247,248,249,250,251,252,253,254,Target
0,0.22296989337926032,0.2105761217062243,0.2198336440042272,0.2805099291766844,0.36009838971701136,0.4579956937053087,0.5536422470119264,0.5909788513628742,0.536394247884326,0.4944356425225545,0.5183246188326285,0.5898959034728533,0.669030788874224,0.749635894195932,0.8185535702543563,0.8589067485129878,0.8271722456944968,0.8069629235270046,0.7965242036686888,0.7711191265040265,0.7413885997938348,0.7043627144013103,0.655969297109336,0.6199031891854894,0.5363622054457302,0.43846260676865256,0.34052142610960345,0.24258024545055346,0.14464014759292002,0.04964688589875888,0.009058512097531946,0.00015663566697998732,0.0,0.002392258042075213,0.014369935547414059,0.06536768450642771,0.16183388079356487,0.2597749752010854,0.3577161558601354,0.4554042872093076,0.5322690885956343,0.5767821106028199,0.5510742848161252,0.5187715319505743,0.4725425992196914,0.4279771474495231,0.3953978775330169,0.3759969592509469,0.3513156520664733,0.3607998049524133,0.3949430321222307,0.4503476194530727,0.4875713494923071,0.5361934222746587,0.5930797285760097,0.6517757795750176,0.7018959327500554,0.7764895188647039,0.8094185992705878,0.8620662876612784,0.9068854080768718,0.912007781902818,0.9151294423513008,0.9446108488709122,0.9470821243175518,0.9433004723932044,0.9146160560326502,0.9245705794073488,0.9467876883904944,0.9470827127895332,0.947082712789534,0.9470827127895368,0.9470827127895376,0.9470827127895411,0.9470824093226248,0.9438464625922708,0.914762043559711,0.9120070461566572,0.9141769891613682,0.9379348604196762,0.914398622321265,0.9257204682851315,0.9468820787665652,0.947291543252592,0.9661317993506184,0.9821125013355454,0.9725563554203732,0.9176472098241968,0.895371058683506,0.8772574386397549,0.8924767197325636,0.9119402597454638,0.9120054640984838,0.9120124615037052,0.9185586861342864,0.944003205606025,0.915547139740858,0.8864731567771136,0.8000716615294063,0.7432267604602787,0.6926043622982512,0.6150757484514697,0.598631430247579,0.6363642523194093,0.7183289183912942,0.8024524166899251,0.8791103584702089,0.9519257360691736,0.9501649407315068,0.8897833935938078,0.8670879915412302,0.8123061144911885,0.8067494517891287,0.7928930828087983,0.7607776190477615,0.714811279073146,0.6950521193093158,0.6621524563134269,0.6075456499087162,0.5960954689249096,0.5669843527367133,0.5209534379920981,0.4877976423122954,0.4577372184157813,0.4325638544760215,0.4199569088346644,0.3919731587616884,0.4074695563402422,0.4559468595980656,0.5046678909623772,0.5539555310464523,0.6027160850912949,0.6578666304401892,0.7182078955671711,0.7778689636220877,0.8425300175775643,0.8858922411070065,0.930180225213772,0.9470458391652938,0.9470827127896362,0.9470827127896388,0.9470827127896406,0.9470827127896424,0.9470849695116632,0.9500200027760188,0.9793878029526571,0.9821596972452912,0.9821435378425284,0.9722417495970506,0.958719787183389,0.9525342018515096,0.955144990113201,0.9813847773427122,0.9821599614807576,0.9821599614807583,0.982159961480762,0.9821599614807636,0.9821600004237644,0.9826278717156348,0.9999999999999992,0.9662929910698664,0.9472677245401968,0.947085585800516,0.9502823545937682,0.9730121091108996,0.9484784140622181,0.9472151457349112,0.9625664676123956,0.974186186799253,0.9480211034993395,0.9420451694692512,0.8970056682365781,0.8187659593123904,0.7529170880211442,0.6880770685565434,0.6392668048017436,0.6387021768259578,0.6980008877033619,0.7750690688526181,0.8504844746419451,0.9342150541166516,0.9690134877007752,0.922909837685082,0.8813381597271004,0.8596264055600322,0.8415197771313068,0.8170010465823125,0.7841954288336579,0.7511611337882709,0.7084661803597152,0.6877244117594055,0.6558509942853998,0.6237440908300407,0.5906772606908719,0.5576104305517031,0.5245263067074006,0.48337074455728496,0.4564518335761552,0.4560103996162326,0.4642887371302722,0.4915366197837701,0.5231853618710671,0.5717976854618225,0.6212328995878327,0.6833901158873914,0.7375954731455403,0.8122985323154079,0.8535437363273948,0.8990172435665338,0.9313067213687124,0.9470474679253612,0.947082712789748,0.9470827127897516,0.9470827127897534,0.947082712789756,0.9470827127897571,0.9470827127897604,0.9470924597912402,0.9558710716747214,0.9814627520012866,0.9821515006690982,0.9743646931215482,0.9483063704667084,0.9670684454925852,0.9565721200269026,0.9470933605210624,0.9470827127897792,0.947082712789781,0.9470827127897844,0.9470682798581818,0.9375791473356596,0.8920515618657143,0.8770390949421909,0.8770832661920416,0.8934642628875773,0.903157219209425,0.8802728480287518,0.9083870741284316,0.912005128323524,0.9120053337117832,0.9107555686471756,0.8614617276749694,0.7920775586972121,0.7213830953378562,0.6562494536990418,0.5910311485094057,0.5326745670782387,0.5487716206470559,0.5985367600152927,0.6785411441726428,0.7761448089901846,0.8489241795431584,0.8918836824858962,0.8754419210112152,0.8219948704008653,No
1,0.9481105036862334,0.9306944835743614,0.9124627408011792,0.8950419494711248,0.8879242204889275,0.871483491288922,0.8638220794598492,0.8498560089757485,0.8554033887739494,0.8554420429696372,0.847720105476022,0.8395079052691887,0.8492582023301841,0.8493609740578525,0.8516198290705881,0.8711591783733623,0.8592354349101332,0.8043314786014046,0.7610570255418554,0.7559855015286288,0.7559825236323734,0.7555391206005386,0.7452212140132541,0.6951775752702831,0.6252317789130961,0.5550203465873556,0.4848105712823552,0.41727284641195705,0.3866732139238498,0.38252256481987423,0.3842947421699239,0.4037951478495039,0.4659601849261117,0.536154009329771,0.6063654416555115,0.6765388565171597,0.7367799758200295,0.7472261964613969,0.7265219064339643,0.6808839972443672,0.6194181790717335,0.5654200734912869,0.4981781971161694,0.4279981609497927,0.3662654691455818,0.3076702427160223,0.2407963401819497,0.18654164420094554,0.12510033444206806,0.08404152772913465,0.08858513159555638,0.1362833066501059,0.2056348857283261,0.2758463180540676,0.3459522091955893,0.4052070709380775,0.4662302881583544,0.534773383580887,0.588728391249278,0.65191582576051,0.7065147102329274,0.761111611066065,0.8118674555924636,0.8527772877241486,0.8756077935458122,0.8876764536425816,0.8715265275517754,0.8696588846561992,0.8687237642988599,0.8529988351166975,0.8461449845561249,0.8251302519661143,0.8086172384792372,0.7881757933899762,0.7661711742329147,0.739531968536002,0.7276566247020537,0.7280118521071728,0.7427892937189453,0.7664455475419379,0.8010933453749298,0.8298437868795956,0.8494644134035063,0.8650381405478056,0.8694109663226688,0.8576220155268475,0.8667055187627626,0.8786761466667241,0.8799504776927947,0.8581713467276364,0.8657947935673258,0.8576486127040215,0.8547415843304798,0.8692080905787143,0.8696583128770454,0.8696583128770463,0.8696579398530435,0.868280231817812,0.8560610219518265,0.8739872422805774,0.872195113269894,0.8717237794272403,0.8882251707382616,0.8861640849480219,0.8711920949086749,0.8857268570858818,0.8899525575595111,0.8899575365086414,0.8897141984995041,0.8768523390414438,0.8822184633281704,0.8875263914647324,0.8775662577026613,0.8983245108308721,0.9101007805121863,0.9102650225427124,0.9156245674701018,0.9226298373722049,0.8694290312935684,0.8151614043615734,0.7460807051387892,0.6807239109393071,0.6253546144680415,0.5557375735216175,0.4878097747461641,0.4339107837665401,0.3654408947955941,0.3042080064213404,0.2451519741820816,0.1785681629640048,0.12603755081888535,0.1040113524675137,0.14148365398595253,0.20766391284070893,0.2618561751435893,0.32910135012333,0.3971134465649695,0.4508693099382546,0.5194374282297827,0.5889135254772664,0.6435480579117745,0.7091017378472849,0.7639683930675956,0.8225312541899592,0.8751393752525405,0.9168300982696872,0.950389801765458,0.9680423306463052,0.9711532643429196,0.9711371426231326,0.9649128734049572,0.9473691672336052,0.9313461854032714,0.9296087580277844,0.9084251064542084,0.8823915772762168,0.8645238757592977,0.8363388004336061,0.8184600370184913,0.7969387452193306,0.8056134178899153,0.8185116900361695,0.8477059748348212,0.8762026010162369,0.8953395616092417,0.9177017277719282,0.9303613111360414,0.9311860142731544,0.9462350350741912,0.9508477034362977,0.9508552074034292,0.9508552074034292,0.9508552074034302,0.9508554117729636,0.9517283239574166,0.9674101668426768,0.971152608358393,0.9711544310350236,0.9711544310350241,0.9711544310350247,0.9711544310350247,0.9711544310350252,0.9711544310350256,0.9711544310350256,0.9712238488355815,0.979963732584438,0.9818508801154459,0.971217311006006,0.962210003251418,0.9516781939751556,0.966023734274918,0.955248846755953,0.9680698824652448,0.988772756523928,0.9914526308347836,0.9915274766836846,1.0,0.9808367168211412,0.9128132080534008,0.8517899908331272,0.7925351290906391,0.7224292379491146,0.652243615971007,0.5902196672814101,0.5318866393853865,0.4618827322777439,0.3916712999520051,0.3214598676262632,0.25124843530052443,0.1815218200073887,0.1259229758065361,0.06127162586722434,0.010444466963790422,0.0,0.03401698748351745,0.09984477177029703,0.16974203152217848,0.2271532255717341,0.2901965733601801,0.3603866141197885,0.4303905212274284,0.4887235491234527,0.5507474978130515,0.6208736114777422,0.6829345024605145,0.7408425138483592,0.7973537057593396,0.8595347877971284,0.9060656220967972,0.9451215119620052,0.9637374203875172,0.9711317989299556,0.96985663774697,0.9535425679897114,0.941255217689582,0.928660408576882,0.911054265645726,0.8870956614622814,0.8548540133532527,0.8269985421226367,0.7921559973152443,0.7640082269129955,0.7320670995955267,0.7039033097444882,0.6877886240734111,0.6996288376553927,0.7257880352405048,0.7606445564130695,0.7982433519649264,0.8411868134424889,0.8816542921249937,0.9005624476672955,0.9101881388933056,0.9102567601402636,0.9102567601402636,No
2,0.809110528240943,0.7741934138919797,0.7574302536019664,0.7308373075516803,0.7806990443519428,0.8172638645737651,0.8180131632632577,0.8307979720980292,0.8292816142583934,0.8563208286625956,0.8962881451591649,0.8718966559381887,0.847425895692326,0.8352157121367085,0.8631636177427691,0.8721662888469481,0.8769880591852335,0.8548667592998438,0.8218401645192781,0.8558523461171834,0.8634478920510213,0.8407631003556348,0.8434239675090396,0.899766715309914,0.9089814170355748,0.9089886355257102,0.9089886355257129,0.9089886355257182,0.9089886355257216,0.9089886355257244,0.9089886355257281,0.9089886355257306,0.908988635525736,0.9087920635164526,0.8829403496612321,0.8900578909981878,0.8729585755422038,0.8219188512096398,0.8108692815307696,0.7749094079906759,0.788617423707664,0.7783966807145815,0.7724803541245322,0.7796409653285412,0.8531786162932793,0.9182402422148268,0.992111163856242,0.9999999999995576,0.999999999999562,0.9999845318064259,0.9872114690477424,0.9555565848523742,0.9815736578223816,0.9965018670261276,0.958418090310273,0.9544971535980996,0.9544809119953088,0.940917248210786,0.8615650740416569,0.7642088796352136,0.6785721303816485,0.5855055880623699,0.4810192723080426,0.3905852507577921,0.2810565361232689,0.19512982483274927,0.10289965918619703,0.09074037244538148,0.14043567894757292,0.2588127090300061,0.34619213183380104,0.4616955783984178,0.5848275697088985,0.7079605922322543,0.8304915948964808,0.9194955903313238,0.9483411093713432,0.8950015612862243,0.8232572286820252,0.8179589670235003,0.8018060533650049,0.7727787500459398,0.7716289737198556,0.7376771661352715,0.7269733828716305,0.7269659065782834,0.7290873819240051,0.7648433018725385,0.7759222332322437,0.8139910660595548,0.8264260349392742,0.8623145575671769,0.8385441450682487,0.8440740026682612,0.8496110787584055,0.8338147683981703,0.8564369205036986,0.8200884186867867,0.7884620049350843,0.7727965576560853,0.7972958043847713,0.8155145768571739,0.7781746838375359,0.7995547959232088,0.8179514907302243,0.8179772710521247,0.8181940092764419,0.8371620080950448,0.8212069504708843,0.8179790756746694,0.8124301737952804,0.7815412514490152,0.8193266842731752,0.852379993465874,0.8204788036219313,0.817977271052154,0.8171346559568482,0.7849242664939213,0.8093145765438852,0.8179721149877865,0.8119060093255781,0.7748373693706005,0.7438974442356505,0.7191853010516382,0.6497314708426245,0.6365637804538746,0.6666369117406976,0.6403426259078726,0.5933392149710164,0.5940083488245671,0.6713136065311156,0.7488414995915216,0.7893688386444433,0.8176514904257113,0.8179772710522046,0.8179772710522091,0.8179772710522126,0.8179772710522162,0.817651490425729,0.7894113761755985,0.7850161476597348,0.8409638693404506,0.8681258298221941,0.8978578329552018,0.8402914850700736,0.758469027194618,0.6500714216179713,0.562994781634587,0.4483159368660203,0.3357109069367512,0.2464046082249407,0.14284347984244586,0.049153322445801166,0.0,0.03896763477232757,0.14959836227417522,0.23555936139282085,0.3572991585246523,0.4788807915383799,0.5672494739511063,0.6809468549210589,0.7783694059118345,0.8757926765753759,0.957902571014313,0.9777225760763272,0.9503285365855908,0.8815320774506512,0.8277017319189612,0.856896996271427,0.8332506317871013,0.8507483991500102,0.8634723833571858,0.8704141058139392,0.8978856757028951,0.8577394183041953,0.8302889284068495,0.8968492476817849,0.8699149104433328,0.8896015981789667,0.9290135830497991,0.9269155099245054,0.9091149507439296,0.9090968661426402,0.925852551988048,0.9303392065595356,0.9339934201173729,0.9544644125895864,0.9544943177629904,0.9484230560364012,0.9128515289934792,0.9439611691045364,0.9473721490647602,0.9114264547017106,0.926915509924548,0.9290414257974876,0.9110825666802445,0.9460827524585084,0.9270443839866118,0.909120364611578,0.9166832341900584,0.9520000600417856,0.9159290689667934,0.908993533787303,0.9089886355261464,0.9089886355261498,0.9089886355261524,0.9055162828746024,0.8663056935071287,0.8281762381214888,0.856442334371577,0.8332135219489842,0.8180493324663551,0.8124257911408046,0.7753531786093415,0.7727614388546451,0.8006568356498853,0.8013919505341098,0.743263741732485,0.7299824366013015,0.7931142276475641,0.8794553614652587,0.9663418863412216,0.9934091447210908,0.9583572112304672,0.9894668513415246,0.9999886566583543,0.9999999999999928,0.9999999999999964,1.0,0.9944485200884206,0.9573759075569556,0.9544950911727748,0.9537809112850172,0.9168143627864708,0.8255002072423921,0.7266711359602951,0.6253186668018422,0.5328702163114736,0.4241952078221791,0.3217677236054408,0.22669644647758425,0.14304286617221607,0.09157861447468107,0.1221614391335537,0.2032040160561852,0.31715430445304005,0.43834866175257137,0.5260578377593443,0.6410435649347104,0.7618619898616847,0.8488034288459492,0.9475059301323824,0.9716115979347276,0.9198804641049724,0.9089961118196052,No
3,0.8362105496834991,0.8384570772380657,0.8825929225473361,0.8751647242107845,0.8726137804146514,0.8747812885024997,0.9039850477452758,0.90908486022058,0.9218875514675328,0.9189484885654896,0.825712603616128,0.7261990839695693,0.6532968885781951,0.5856026928787887,0.5178564497362768,0.4500151181492091,0.368321164267015,0.27919151597089176,0.2121712981479158,0.14014910826577331,0.0720619831467868,0.022094944782927502,0.0,0.00041454265857598926,0.0486518754855485,0.14793542601702292,0.2253875124181599,0.29327579195693604,0.3720352980125465,0.43956748720523453,0.4894681072331037,0.4538749909356055,0.37364234761085147,0.30712490423499794,0.3255598596991227,0.3851059056167063,0.4535346577605859,0.5396514032629307,0.6176833883706152,0.7092759676378657,0.7827702854029086,0.8825333283449686,0.9801634907885894,0.9999999999999992,0.9417190797103164,0.9092909175087582,0.9080900330669256,0.8795462744636104,0.8918130574686199,0.9067921461664517,0.8764279351714475,0.8544447575121668,0.8562205996831311,0.8700821195939161,0.8396217205427429,0.8354427421290715,0.8081099686277105,0.7998160891018813,0.8001242847880999,0.8245047624431718,0.8361967731323291,0.8421872669799049,0.8716124753740928,0.8726126962438396,0.8725896172471197,0.8595500946465817,0.8511120328442345,0.8724236992309065,0.8671672565389885,0.8450770744601321,0.8716996655140292,0.8726127337254486,0.8725861808349116,0.8582872554652887,0.8523748720255488,0.8725111566402006,0.8718659222325682,0.8463110098477085,0.8659875420331717,0.8726116415254426,0.8726127788737505,0.8726127788737532,0.8723053149886946,0.8495721137264605,0.8604382045819179,0.8456461871299963,0.8666087871563999,0.8763443340273884,0.9067416983674876,0.9091963324991186,0.9275066041480348,0.9435300970707656,0.9124268592249748,0.8738025964936993,0.8381712501451029,0.8369335768517843,0.8631315141346434,0.8725994578821492,0.8726174196665442,0.8776675985399613,0.9076699582708788,0.9090146692388271,0.9039744895062504,0.8344832743937909,0.7424645436849193,0.669168041742501,0.5696381931237829,0.4815847936149966,0.4061076085928619,0.3368051201319524,0.30079839115588314,0.3504857153118044,0.4174651901889668,0.5103714978530007,0.6016090064833381,0.6755274365912421,0.7602535151317991,0.8369688673639404,0.8944809167409291,0.8672183697685156,0.8412829715959509,0.8710611776816926,0.8539995243769924,0.8363782316927866,0.8362104540629369,0.8362100289875292,0.8298583309885572,0.8016286823497527,0.8166499651305879,0.8128007883869239,0.7998816380947602,0.7998081292520887,0.7998081292520913,0.7998081362798919,0.8000576822154022,0.8218120988429094,0.8374316984316783,0.8651636213681684,0.8726067343378467,0.8670549027766095,0.8453179052546815,0.8850906510665792,0.8792049263340225,0.8997461089361192,0.8744596365840955,0.8701707076402574,0.8399885123403337,0.8539733328655341,0.8458196520040033,0.8718025863398751,0.8726128864204616,0.8749843965676618,0.8997481006570682,0.8807739807047206,0.9080069864858205,0.9090150176473832,0.9090151648052548,0.9101985463971456,0.9377994964620218,0.9454108241278094,0.9456033784217306,0.9641281924411532,0.9716593864535444,0.9460226797571069,0.9454175371070148,0.9468364306880126,0.9748134320385092,0.9740486048877416,0.9280034573017976,0.909184076499935,0.9090174275776156,0.9119759497462434,0.9424689250668976,0.9454172634487588,0.946418847973484,0.9737236267772252,0.9818105780758124,0.9835699484367212,0.9958931137110048,0.914075380166148,0.8205267449162852,0.7480468517935712,0.6489883788949742,0.5502845446637465,0.4799792582752982,0.3845617185218302,0.314759829805344,0.29118949228263524,0.3320785224717948,0.40756544222990604,0.4754599685054686,0.5584091935802595,0.6322469692669639,0.7238034249808161,0.8242904257909114,0.9237716640635778,0.9806808944160554,0.9818196468246292,0.9818197533064464,0.9818083067214892,0.9730409229759518,0.9454230408363982,0.9165553443787324,0.9090221257619177,0.907267243959632,0.8564877201188397,0.8365249952150551,0.8512259890286691,0.8388629188640628,0.8288188624421018,0.8010773000223903,0.8012164887235178,0.8291832328771083,0.8362071299069553,0.8362176962872372,0.8438125007569823,0.8604915620453868,0.8495423109409144,0.8660131809423479,0.8461114695190766,0.8885510186438328,0.8856843177860414,0.8660914108536577,0.8462816304338769,0.8718619637394323,0.8726127788739095,0.8726127788739104,0.8726127788739122,0.8726127788739149,0.8724715717073891,0.8518008542160401,0.8581935189904675,0.8455335823752286,0.8405282999142498,0.849430481979903,0.8594925471986796,0.8725720788406974,0.8616095378480964,0.8366551994496891,0.8384429313985207,0.8633402814588527,0.8386142133097954,0.8365079195341005,0.8606726107960023,0.8678722614875047,0.838496743431886,0.83621055905415,0.8362104540630817,0.8362104540630835,0.8362104540630844,0.8362104623686673,0.8364634143319565,0.8583899726262434,0.8721843379131222,0.8488670188650111,No
4,0.9967553309616366,0.9927751116983256,0.9539254003475476,0.9485398026262906,0.9870325164192102,0.9715974706282,0.9244905716752334,0.896104115390306,0.8969445511334259,0.9212870881294691,0.9355938137488322,0.9205739647181584,0.9351061387726536,0.9454824853342454,0.9488724828787674,0.9609285259767462,0.9476421337903952,0.9675509074615064,0.9711313362747344,0.9634582998217502,0.9288407304807148,0.9359009343923046,0.9743290037547792,0.9748106068871478,0.9633979796182968,0.9459860748925631,0.9521226162698402,0.9573935396041038,0.9456278234838248,0.9455257590329568,0.9413604500073728,0.9023231870084172,0.8808919853441891,0.8791228755919982,0.9147646478836032,0.9463907405419696,0.9703272456532432,0.9711417728270306,0.971752034688079,0.9950367126954665,0.9875496794000821,0.9090127308917038,0.8282775898016861,0.7671369918884126,0.6881231237810583,0.6059620954096641,0.5289723795886814,0.4662947125259445,0.38509417688279424,0.3130325130826095,0.2834786228933739,0.31291067940440304,0.3818642241624519,0.4429222469812557,0.523587817959557,0.6037285194383166,0.6652975607210907,0.7342035029511091,0.7806710043416074,0.8354131231695887,0.8899445361013467,0.9304285050348172,0.9520358791167972,0.9238262069328668,0.9368997288405124,0.92153949753749,0.9184987385506304,0.8974850234560471,0.8937509738305693,0.8756087641189619,0.8559849217530355,0.8288231317063048,0.8212382293768736,0.8386606283941362,0.8151978285134773,0.7937409074587802,0.8219932314901991,0.8647395071688995,0.8509148288341435,0.8746205566920007,0.9019155506085794,0.9196249747959809,0.9174587239838085,0.8958950887062822,0.8749077519345847,0.8691785065490971,0.8903692041169031,0.9184561156653026,0.9087739294268462,0.8700646710309852,0.8446897839780765,0.8615883878026529,0.8426685497519943,0.8196118871921114,0.8399057888809014,0.8604275853376939,0.8686522857825705,0.858857746498193,0.8249489530074041,0.8321741452161446,0.8199335085617085,0.798766715452317,0.8162479543659837,0.8261781566787305,0.8729021571596349,0.8790365277363059,0.8729157946260444,0.8949112639799854,0.9375276070471236,0.9498663258561266,0.8746553708722309,0.7924940173501311,0.7140186784853055,0.6520776223122251,0.5716030442789726,0.4894358767591971,0.41007329079874255,0.3485721550180938,0.2685462236049396,0.18781688002423325,0.12696454295662152,0.07792814697723571,0.09080806621592297,0.14879985008586294,0.2302759008133788,0.3124436566682069,0.3945922824164807,0.4701313070567314,0.5335188195846685,0.5975614501962165,0.6679611497275681,0.7297717638471215,0.8017894220784876,0.8365105361377512,0.8770535608407939,0.918017679808448,0.9407587116198832,0.922012372629792,0.9394200199338214,0.9625601093238108,0.9572488794045148,0.94136691812589,0.8955078242443891,0.8725635070698572,0.8933594888086858,0.9112835359881132,0.8954048712109697,0.8615088656083283,0.8226094519704623,0.8032124049406879,0.8297599777052675,0.8429926120050983,0.8514800748025659,0.8861804003663951,0.8983089714451187,0.9152736855743088,0.8846541848745857,0.8689310170928208,0.8783189138515763,0.8858856997794047,0.8748063662422285,0.9004410034645027,0.904398969781282,0.8727321273980064,0.8929023335441584,0.9142533091760324,0.8762683102865174,0.8714662544263629,0.8924218854484924,0.8771770953771525,0.8752377003622241,0.909167973474316,0.9136904528355648,0.8853929331044381,0.8454797503639502,0.8241627501184028,0.8046173520719848,0.7949376366276897,0.8207426894190797,0.868903253339107,0.9151001656597724,0.9349177077266568,0.9241840101437416,0.9402967610782204,0.9730750577625584,1.0000000000000004,0.9310934948333682,0.8489448596275389,0.7667771037727116,0.6846093479178821,0.6024415920630529,0.5202822059138525,0.4451412116395592,0.3810688650271175,0.2993852113613231,0.21722406532291672,0.14116286390433608,0.0779410097820632,0.009169440347859936,0.0,0.04411412402748383,0.10461217814571988,0.18447089265971608,0.266638648514542,0.34847353565722283,0.4147986094286873,0.4875527477533903,0.5687532833965405,0.6314300756306337,0.7063704526708108,0.7653579920366576,0.823361274982386,0.8910243710932497,0.9248674531365056,0.9669742848771548,0.9961902802136956,0.9898188720726302,0.9762415586958224,0.9851680984867204,0.9713999929389732,0.9650819761185684,0.9389164659464072,0.9324717729492584,0.9336849230306314,0.8989253568809912,0.872847444622876,0.8686856115727593,0.8687018885476454,0.875308446515779,0.9020962337388334,0.9359050089869688,0.9205726068358708,0.8981640608935817,0.9112861451263304,0.8981629507309212,0.9179575230671566,0.924184833059472,0.930708823048628,0.8916844233541332,0.8784562059573742,0.9072463809483478,0.9439749649555621,0.9455229350250732,0.9406337661386464,0.9195920407992147,0.8974955338380544,0.8954694924730764,0.9036774521381824,0.8746084331576811,0.877576177869813,0.8705811597546016,0.8435665859837669,0.8433899010672916,0.8614761782682998,0.8920322739777613,No
5,0.927654552453764,0.8900248522733056,0.8245921998924919,0.7644846313161553,0.6880295536340144,0.6112244682171353,0.5468930159379832,0.4809520058235037,0.4040561343260061,0.3270863427249333,0.2514562202418551,0.19548290197978746,0.18090898036567404,0.21102356358688912,0.21689243838918196,0.23597210562341564,0.22393276744575807,0.22017254681356133,0.23429103726207898,0.21565384106418814,0.2259285668017115,0.2706770625555053,0.30373631139052026,0.30204795474227364,0.28919390009037826,0.26540554991490195,0.2462631397351256,0.2383133870192697,0.23828660346181696,0.23221417407707398,0.21501052153958256,0.21439676580169745,0.21439676580169745,0.2143967658016961,0.2145112904175699,0.2272464318966989,0.22874583826992054,0.21454773868331367,0.21822468784769766,0.23465389908372905,0.2165083935382981,0.2143964705306085,0.2129887959188257,0.1939373240622082,0.17492113424853306,0.16659270589028985,0.16200674174011676,0.12889534646178769,0.08325315052034021,0.05183246196426428,0.014519214492837662,0.0,0.0213049927818667,0.052355423251059914,0.0974798934127774,0.13405277899229562,0.15318584085750864,0.1858872965595415,0.21172398039875875,0.23733397714962925,0.2686590378641358,0.2898876892892588,0.3140643297049728,0.34901435028979044,0.40289625950106256,0.4592545287152721,0.5154678536673973,0.5681954258746318,0.6409687641334756,0.7179335666714124,0.7909421471405871,0.8492821028759314,0.9188051966300312,0.9704347761712206,0.9996047269538656,0.9759386510404946,0.9289745752669134,0.8546936734034167,0.7889497805935539,0.724484506087129,0.6476226392326163,0.5711743194569463,0.5116570597580488,0.44061235265365895,0.3636492199246089,0.2867264439087349,0.2245329407149237,0.25436765257709704,0.2940973626804393,0.3097865642761697,0.3101917034674706,0.32720181831564865,0.3555057789457088,0.3578035370501844,0.3501643776069709,0.35003341843137115,0.3869971344667995,0.3923377374524213,0.3648424264349535,0.3173392496198861,0.2769198140285152,0.2384136565562729,0.1999645264444392,0.1671239262542099,0.13491715158780648,0.10312610008793176,0.11641412507051953,0.10451884734946093,0.096254506175121,0.11606967755267528,0.13478447518846082,0.13024253001782649,0.1378122986071979,0.1441664077511171,0.17154599888668232,0.19080418543409208,0.20881876752351314,0.227350626020435,0.2466683025588372,0.2916619840165389,0.3105255793447874,0.328987342265572,0.3476671977079393,0.3567870610217634,0.3273186320294537,0.3262053379949412,0.3122192420091681,0.29205072187780257,0.2631748285532791,0.2317436855172277,0.18716387009046453,0.15833444191669566,0.1390492303221036,0.10806142396889752,0.10672633185702862,0.1432015552796604,0.16750436636611932,0.18837087706774455,0.20763895348653486,0.21437249811884215,0.2116933824643561,0.1991092432680439,0.22351068253982875,0.26740730729225737,0.3188088754501006,0.37024963248033416,0.4289529115274453,0.4888681962219499,0.5579101347421549,0.6161345188979137,0.6889695330355909,0.7653672479424499,0.8252822486237177,0.8907597793514546,0.9279195713825246,0.9168638890446924,0.8654848912139244,0.793576063596956,0.7321031945634422,0.663175294819907,0.5864005804855079,0.5223633866502517,0.4561149316174271,0.3792119758193069,0.3022422860358498,0.2267317724085633,0.17759799441688529,0.18503633912755998,0.2283233372696336,0.2382581852977732,0.23830340889294946,0.23830340889294896,0.23825237249149955,0.2284453387239327,0.2343286854828004,0.27226064688367696,0.30521503544477024,0.30076552462159256,0.2817756111977081,0.2504730014641918,0.2383789698553977,0.2383034088929441,0.24028025082471416,0.2598612933779023,0.25597640356298834,0.2512433674451984,0.25321014172656753,0.2541481147879039,0.2718377286622995,0.2789066036412353,0.2627929429606031,0.27708745323769834,0.28664888410121314,0.3019511169163449,0.2890978270889848,0.2861173874353149,0.2884601303695198,0.3076297978661424,0.29691623237084297,0.3032023449883185,0.2875874221820793,0.2733393259731525,0.2294272221524065,0.2066287182442248,0.1736050828653668,0.14466007921070154,0.11467880600730007,0.10771723625558184,0.13825342830311627,0.1588848149103428,0.19064882206143666,0.21325506598948565,0.2342517429331989,0.2585801205719336,0.27743582204216466,0.29520206485050515,0.31411243331881256,0.3468295542766322,0.3995416652517303,0.4560748857335932,0.5206161234983417,0.5790770617630852,0.6374051034257571,0.6985733816298696,0.7666630802826173,0.8329628509781903,0.8956831451055995,0.9529120980935596,1.0,0.9848461396058984,0.9324421691595745,0.8589856122635604,0.7918156698232641,0.7300958491392917,0.6822880546096401,0.6249411308325534,0.5678154438355589,0.4927450926175627,0.41577605446684185,0.3409131390635505,0.3002133185516671,0.3180359038356313,0.3549563104937397,0.3578352599933732,0.3589993679772894,0.3781246267608518,0.3817424019909828,0.3850743819305764,0.4094070718325433,0.44928396754133626,0.4745290888505505,0.4931646217400134,0.4823078872115314,0.4468854491841476,0.42990130529508974,No
6,0.8346830750351026,0.7872726004943464,0.7467146739785644,0.7129310633622916,0.6933950690691182,0.7122069624659817,0.7537308870215558,0.7905243806631583,0.8139753971736123,0.851344462669152,0.8722762755600568,0.9014869646765976,0.9419580004061024,0.9840748997927208,0.9999659953519124,1.0,0.98287373911295,0.9426336979573496,0.8951153370901714,0.8733190578505985,0.8423760895250707,0.7951164932555566,0.7530336495942347,0.7067201679538782,0.6664061021799768,0.6579213063152096,0.6492390576994547,0.6069916569960334,0.5642525456515264,0.5311920787456592,0.5059272496265002,0.4957310523065148,0.5069830191543567,0.4817299994803794,0.4599959916169389,0.439571537979099,0.41912507148740863,0.3935543520139957,0.3705132456945295,0.3230421841380684,0.26956143584139536,0.22910859022216898,0.18874195195037125,0.1486352169625218,0.12355810077894967,0.09444646724095218,0.06396431606416453,0.03396916750826584,0.013240481916892309,0.013603064714537094,0.018719126629402002,0.0187233409149532,0.017608163617591988,0.0,0.0017669128281934121,0.030235486472615317,0.04124844067657918,0.06510267176707972,0.10551805567181738,0.11144309533074503,0.13769028528215355,0.15240516160428852,0.15241143564734294,0.13954381077343347,0.14571326902080714,0.13509793293766492,0.13026610604038247,0.1395669431558022,0.15385791685484573,0.17243077348501726,0.1611613738109834,0.16838204341544127,0.1570608876260735,0.1510593612838318,0.13312761533234152,0.146167606617162,0.1444882338023885,0.1304216656103545,0.12935312748989647,0.11211488713467332,0.10779464970101094,0.09442050168017024,0.1021121309395463,0.10800293724301913,0.12445153050323032,0.15186546935326595,0.17009934642685431,0.20010515319450128,0.22249805160304792,0.24991418524262302,0.2869449520121683,0.3417794277676274,0.3851288779810185,0.4268934900794341,0.4420959479474775,0.4255893267416044,0.3817755515737797,0.3245367904010972,0.2820358290009328,0.22200510699755285,0.16557598990846856,0.1222459718361164,0.07519597293877522,0.09873137971328516,0.1452716735622812,0.16708101679499746,0.18687046872712051,0.19611726225853546,0.17885802545104346,0.17540989295410458,0.1932875445763216,0.1994593900387227,0.22391107763639664,0.2413466211446216,0.23641972837137934,0.21988469729527796,0.2201367669544707,0.2383892039327078,0.2417764020111708,0.24853968732612275,0.26838281712334044,0.2856440281976296,0.2863145955621387,0.2774838311889329,0.2767944502922521,0.2810750748247877,0.26450509915918285,0.26466065872916955,0.28287540217617124,0.2863764018931576,0.28637822169828153,0.28475707736888894,0.26960221223893743,0.2851075248403561,0.27729960608033233,0.24868221688787,0.2516441309075952,0.2605747381268526,0.2472975670058979,0.2621291752212769,0.2448325755452481,0.24176979324515546,0.2422893451089756,0.25983220360761683,0.2640711819848005,0.2638145351942329,0.24918230197218305,0.2620329066424505,0.2851279554211441,0.3002605417346631,0.312203826307901,0.3301341206494177,0.35231796310732033,0.3795448300199107,0.4074873056339996,0.4200922746158296,0.4201957963262593,0.413498739430064,0.3845512744049997,0.3467310864987647,0.3125412978062396,0.2883087947364396,0.2704297362650303,0.241951076962843,0.22433933314743548,0.1996339228108095,0.1965204777113705,0.17971191658523367,0.1734886066352086,0.14978117836277915,0.10949232427869847,0.08491294094006596,0.06424582033281158,0.044346964521963635,0.04102990173216448,0.045200951435453884,0.06542730267173136,0.09179622828258084,0.10836326925986173,0.12717354622584853,0.15014704910664325,0.19006917372834356,0.2215804311654304,0.2521685881402118,0.2907842067296187,0.3358410214833074,0.3845415030667758,0.4075979824934768,0.4090293249705166,0.3709068684833188,0.3169947001039031,0.2719547734972778,0.2115054510857628,0.15086040988496885,0.10364030934053092,0.05810448486089026,0.06804985682694252,0.11654806139616093,0.1401545755819842,0.1697586464138232,0.19570553931362775,0.2274495238680374,0.2584974012557271,0.2614281882155796,0.24297066147769986,0.2521848749622757,0.2639658878544462,0.2693807023099493,0.2844338204542272,0.266797714425874,0.25400938436473863,0.24184105600861594,0.25291467872325324,0.2639723060706545,0.2640744384781,0.2640744384780982,0.2644162079762187,0.2801154332162321,0.2781337500393728,0.2646801976893429,0.2812752032824726,0.2863751567632189,0.28637908371111864,0.2863790837111169,0.285612351382182,0.2686640944806826,0.2766823795300564,0.2863020474758877,0.28637908371110843,0.2863790837111062,0.28637908371110404,0.2863768807891089,0.2834908632889488,0.2651052755617216,0.27522952576744464,0.3027328887294751,0.30867922732092223,0.30868372894412394,0.3086837289441231,0.3086380629241812,0.30058699157957003,0.2719389660196736,0.263149886878677,0.2365104559313762,0.21955365406062374,0.2193630156045363,0.20851382098097784,0.21179472051876846,0.21944108070983329,0.2294588612727351,0.2573662227987188,0.2640632796949101,0.26395975798447635,0.2521848749621953,0.2417866503872124,No
7,0.9170076192861294,0.9170076192861304,0.916742572727446,0.9044897445026664,0.9095985441622704,0.9010413339705071,0.8993214709319872,0.9120226879858148,0.9169864423420822,0.912269606629442,0.9005306501836037,0.9143594336851808,0.9166400903464752,0.9004551004807437,0.8801919062083523,0.8619961031390182,0.8457509056062555,0.8478927602762139,0.8670420454704306,0.8805001448953154,0.8810654185336229,0.8928539681623224,0.9037348680707789,0.8699077763841312,0.8296168086816782,0.7685556849555981,0.7068772123100482,0.6515865094379207,0.6013005672054414,0.5398789784943911,0.4783007433681497,0.4264763155129052,0.3728370158816445,0.3112027142940663,0.2512698908904145,0.2042878582559311,0.1523070645438951,0.11650946436020247,0.058176243475244416,0.017282384910066728,0.0007668771877558099,0.033933105897483884,0.08474995330988078,0.1375531597418247,0.1991700210024372,0.2591246008592605,0.3060898654692497,0.3661532802320608,0.4278479176567789,0.4893668402562867,0.5406187952586516,0.5948498130014586,0.6564887930723864,0.7117973179649888,0.7619790110761548,0.8179312954446698,0.8665330472590016,0.8978177919989081,0.8989722301891989,0.9070856814572106,0.9029620457850362,0.8989091607903523,0.8987755812600629,0.8886280566482134,0.8808496315075529,0.8764793789467649,0.8517712230524745,0.8355199057107057,0.806467192992705,0.7909594036600311,0.8022545439025821,0.8228079195303195,0.847126139979224,0.8757770440446606,0.8964969314224644,0.9134922961043829,0.9011654182826391,0.9043543907759366,0.915187249348381,0.8930902104493987,0.8796830994487732,0.8686339983483298,0.8857456562260664,0.8987828123187684,0.9086478963402684,0.9068382212090832,0.8989623275600445,0.8987324432740307,0.8877475803781834,0.8925586378304051,0.914911492211698,0.9046945480312858,0.8989296766607526,0.8989037406337275,0.8989037406337279,0.8989037406337292,0.8989037406337306,0.8987151880796191,0.8872001210839602,0.8713827041702062,0.8473845543266583,0.8448819363986062,0.8586356376895501,0.8797375189088501,0.8915519318569345,0.8988918523072211,0.9034331577992852,0.9004541855995334,0.8437400675897213,0.7908983308267539,0.7383086301067632,0.6766875046250419,0.6149923260015395,0.5532971473780393,0.4916025708381833,0.4318003387936922,0.3847190539671908,0.3246196510716026,0.2629324031243474,0.20546018184728787,0.15711767410617886,0.09594385622535297,0.035720895331080804,0.0,0.008111862759407007,0.05500525677284873,0.10607686505234692,0.1602858060216259,0.22196067023663346,0.2835903880602748,0.3368360880998096,0.3890437412769536,0.4506375060781749,0.5122941465731672,0.5674429359154773,0.6178016765322796,0.6793103229807267,0.7379954846966004,0.7854861604803549,0.8438543350982348,0.8827778695766857,0.8726898965299794,0.8627203061875015,0.8545248396046365,0.8444798480085964,0.8321639140829653,0.8222232430544105,0.8028104876974163,0.7904395304484759,0.7781168250518831,0.7552741390403979,0.738362898041379,0.7201196706936233,0.7179175409499292,0.7258105898183107,0.7551565773820887,0.7860104934531571,0.8196826846639662,0.856659848807535,0.8869886492115331,0.9086080213065596,0.9169579710472192,0.9172284866757692,0.9281701889621226,0.942500585188978,0.93994254516693,0.9351242590414509,0.935352372622277,0.9452887733413684,0.9355001678212678,0.9185580244188578,0.9155759182575016,0.902055125997482,0.905183306845886,0.9071742811521436,0.9159267931040892,0.9021971075659304,0.9058766744985424,0.9059063584045997,0.9304849282936978,0.9373631239121374,0.9647316777682048,0.9705224979716532,0.9571210124160672,0.9670352464663404,0.9700803311186692,0.9428655087520514,0.91874345873521,0.9194818005758488,0.9428670948935572,0.958973003458902,0.9711013688590272,0.9711760028947548,0.955793251706,0.9127478748194084,0.8530394858476518,0.7933695732216295,0.7462302782868724,0.6860584638719005,0.6250640909559646,0.577073087098471,0.519072558421557,0.4583643859413313,0.4111194138152592,0.3520920133772334,0.29059933677403205,0.24115965005251105,0.2148869490376879,0.2442254738611651,0.2951579715584756,0.3567101403928703,0.4172770083474919,0.4647321360938657,0.5236927793793282,0.5853870557229826,0.6465431080417585,0.6947732440853618,0.7523754006273236,0.8139262675496859,0.8655604901389241,0.918826810044382,0.9666027900285704,1.0,0.9783843070568556,0.9713573152591696,0.9712995510900112,0.9638864635630178,0.9425476215908976,0.9228629615326214,0.9306468641402406,0.9175765170983484,0.9064164107564832,0.8806331303838286,0.858292397440886,0.8349996604492222,0.8111196123159221,0.8182097223245175,0.8269678595911367,0.8445331930839141,0.879330863031516,0.9126578127576668,0.931716391914,0.9303406942422066,0.9264477116647644,0.9371015718976524,0.9514734022558966,0.9402653935412264,0.9482562214355128,0.9672977753364692,0.9623057747201216,0.9667890158315346,0.9676889249917182,0.9523749856361384,0.938394885093868,0.95601395565096,No
8,0.9882303615509248,0.9852996234947562,0.9647694980968642,0.9360369707896714,0.928782811328769,0.9377567244763844,0.9222983919573452,0.9012186340595104,0.8845480679445457,0.8767030051023363,0.8600959851891097,0.8501436521691892,0.8708254295206035,0.8877101255327675,0.9150244556524608,0.9260022913968976,0.940027189269096,0.940027189269096,0.9262862287249799,0.9379924884963732,0.946517154504258,0.9465561983626408,0.9477172859211888,0.9639609278658532,0.9672557194518734,0.9547963002882164,0.9564191527157327,0.9672094512803144,0.9567868352678288,0.9466360934233228,0.9465560536049892,0.9464784137308728,0.9363577795106592,0.9245563927377908,0.9073049568968964,0.8967281606157762,0.8861255358443185,0.9099320060839696,0.9285876463155835,0.9449052856504244,0.9178387872518492,0.8682747160014124,0.8050315001079142,0.7513819275173129,0.6908356740246524,0.6234486171491267,0.55603242213747,0.4890096518214331,0.4361049222943048,0.3746013243886264,0.3072053750944468,0.2397891800827905,0.17244093975190244,0.11474638690737747,0.058389347329047325,0.0059496412251092146,0.0,0.04565803413645009,0.1123112840607483,0.17921242220134426,0.230999891845896,0.2937273473677715,0.3611383311037724,0.4285545261154282,0.4959707211270854,0.563143744925636,0.6181202660089761,0.6774107870658312,0.7447977681701089,0.8122130946358235,0.8778227504320757,0.927892803877953,0.9597715050169221,0.951199346263659,0.9575521025094944,0.960217858755001,0.9672094512803242,0.9534551332601242,0.9465851917411284,0.945505830245299,0.9285876463155902,0.9121037728040116,0.9042273546604872,0.8886873816420837,0.8838961223325685,0.8688288108180053,0.8443390978525955,0.8414641337895716,0.8252079457996047,0.8221816886857103,0.8422653859080191,0.8680542432017115,0.8857715652976661,0.9034679369715576,0.9088809567579096,0.9248870301297298,0.9257183206014044,0.9243785028468491,0.9108836602044534,0.9262352025712212,0.9436626980865864,0.954089447627234,0.960718486311256,0.9469079790812982,0.9465560536050104,0.9465560536050108,0.9465561983626688,0.9477172859212156,0.9631296373942068,0.9494309056535668,0.9282583430585368,0.911781549102478,0.9049108837951962,0.9069844960919968,0.9319163071772584,0.9473116424237268,0.960194157630092,0.9324716437085194,0.8816487601125296,0.8232279951176382,0.7639843970342199,0.7090078759508791,0.6418348521523303,0.5744192361713014,0.5096786656581314,0.4588750625376728,0.39304822077301305,0.3351941170347512,0.2976839386687984,0.24741038047495897,0.2160814066142267,0.1602093815973462,0.1168881715541632,0.14268385151295426,0.19382307565840584,0.2606269130864152,0.3280347189387989,0.3908147760618381,0.4427231003307721,0.5094539601294392,0.5768701551410961,0.6440975560712365,0.6998370545158479,0.7583295914665364,0.8256947413039488,0.8891124490050379,0.9386765202554764,0.9668312725685372,0.9752591030954214,0.9880471842839502,0.9796679545036162,0.967603399919022,0.962195399034107,0.947016733344492,0.9459436960213764,0.9305782311390436,0.9142972616378242,0.8988183940501497,0.8817428699540422,0.8610637707509707,0.8387060140793771,0.8220447124544679,0.8215302346140367,0.8230797512279548,0.8417588000891869,0.8641699180575415,0.8931239661832335,0.9133539356999468,0.917811007618018,0.9332323442369556,0.94608077463317,0.9332637097740046,0.9433986231238628,0.9465563431203448,0.9496702257518036,0.9760356887457564,0.9742733191491624,0.9858218519260401,0.9882315196122392,0.9882292034897259,0.9847998189307624,0.9706208968642444,0.9865643344589454,0.9881926205115152,0.9799111257167388,0.9801762337498668,0.9763693226248118,0.9674114956746984,0.9592354245626904,0.9427552338121696,0.9152407357398458,0.9142510239240212,0.953380269382332,0.9847067035570184,0.986962724068318,0.9515683427084044,0.9019500251692768,0.8367276403671391,0.7703629715340963,0.7197001538379038,0.6553160645474851,0.5879018961430278,0.5206020817788777,0.4649024891997673,0.4064441211382257,0.3390748491000051,0.271664444394633,0.20918862824666865,0.1571767077940014,0.0935252739692487,0.07337757291781788,0.09932838716806014,0.15889958958953088,0.22630594108050414,0.29345177631325914,0.3480468087159649,0.4077363218259032,0.4751329881235287,0.5425491831351854,0.6099653781468399,0.6769208934190276,0.7291584227410697,0.7913825995151207,0.8584676882793723,0.9122977167136104,0.969032312815392,0.9882872994853686,1.0,0.9980050397345877,0.9882843708647892,0.9881829353181768,0.9792592772572112,0.967582580690165,0.9672289799944052,0.953738313103338,0.9380245907721192,0.9259279339118436,0.9203648116060306,0.8920456138153621,0.881081544395049,0.8548366748135696,0.8448265879273928,0.8618631324712256,0.8643836354847689,0.8865183080757664,0.916790749645152,0.9102948508462568,0.9256289986891236,0.9428709764577771,0.9465531584519112,0.9452162358504976,0.9317209589351316,0.9456764429376384,0.9528109753723996,0.9670733395423814,No
9,0.6108156522815795,0.592131606301681,0.5935865415839254,0.6297565845597095,0.6184591706177427,0.5922981784237367,0.5930489512005428,0.6254793953006041,0.6234859981684382,0.5928357688071353,0.5920371654219467,0.5920371654219503,0.5920371654219521,0.5920371654219556,0.5920379887157505,0.5992190951867462,0.6357393672002862,0.6375366222060723,0.6139534341784323,0.5921340909040493,0.5917800459984024,0.5606623091358935,0.5101044016495315,0.5008171931294392,0.4844955847369219,0.4299209185927104,0.4309996468328468,0.4967822706973904,0.5641566513819551,0.6016331844671194,0.6372200962443646,0.6377029908510385,0.6516377233937839,0.6670808177288663,0.6383530539319962,0.6580335243366822,0.6942038572215736,0.7162096460142395,0.6213906269498386,0.5401758121905686,0.447803968783151,0.3820240991578574,0.3716767016745708,0.44174844661285295,0.4995640731366082,0.5542805108013544,0.5916583371714754,0.601522360039354,0.6396095943503024,0.6745592022406184,0.641777607150325,0.6600010836671544,0.6831587599676912,0.6832644234203267,0.682978374204561,0.6517024072607738,0.6470379545205738,0.6826733846884094,0.6795105936568504,0.6418291027191012,0.6376514084030012,0.6373204996408797,0.6047757949005357,0.5920783988489511,0.5923445956816059,0.6202495865056337,0.6766890353498285,0.7316119756451878,0.7864034127860444,0.8416269889100905,0.8674675808017023,0.9045080677482096,0.9113312427735768,0.9113323172417518,0.9068729413424528,0.8711201588224373,0.9061978263215762,0.9134382644302654,0.9570507334339098,1.0,0.9904780410563596,0.9579672519936137,0.957197941617384,0.9830619366780518,0.9733740294696728,0.95701549612986,0.9569461974153056,0.9569452206260616,0.9508893644735048,0.9117324665335921,0.8747917513903811,0.9036581184481705,0.937406081812682,0.9491680073801892,0.912752093235019,0.8849481834115059,0.8658022707753981,0.8657189394170226,0.8657189394170235,0.8657189394170262,0.8657189394170288,0.8657172370129151,0.8580620783838802,0.805431968428417,0.787938650306006,0.8404536315533653,0.8419719675716975,0.8206397946164499,0.8479206825242152,0.8350431210598641,0.8201658387300617,0.8197069455382904,0.7852278965859947,0.7745153740408792,0.7744916814187484,0.7744892533997652,0.7634496502643708,0.725118331247204,0.6771851069776895,0.639052354693967,0.6377529946805014,0.6672654043847022,0.7266545235452524,0.7288782547545294,0.7305757293770281,0.7671144599880577,0.7742448974456542,0.7441205893630993,0.737124730764557,0.7865622706631212,0.7695369019506924,0.6973848035998484,0.6043562625090537,0.5248652851156086,0.4470121710686641,0.4108327909410781,0.4247855228313986,0.4808554507048806,0.5376030494656927,0.6150848219971241,0.6930335581178095,0.7284369889292472,0.7063081519154979,0.6869519954156669,0.7047297911897523,0.6830053700285532,0.6475359835063088,0.6377643962036483,0.6596526581501685,0.6768494663437767,0.6396721956162654,0.6322391268030447,0.5942904522079484,0.5722409835402953,0.5466196678268558,0.5464235364230534,0.5464235364230561,0.5472303620480536,0.5717512954998885,0.5484915728573974,0.5568597243427966,0.5916369344456678,0.6010212680671287,0.6368448087261402,0.6341119116211997,0.5965658962246092,0.5920378038237706,0.5917187829092958,0.5595125884060419,0.5464678394908278,0.5466730406830509,0.5815078964841769,0.6367236040081021,0.6342040317483502,0.5967160772979714,0.5920378142893874,0.5920371654222487,0.5919655370192656,0.5705068900460928,0.5465314249081699,0.5464788024938372,0.5607607902212921,0.5752590196462144,0.5490125047628487,0.5857960922261922,0.5917279329101852,0.5598129505527654,0.5464704706115809,0.5464235364231191,0.5464774869334974,0.5606139162772736,0.5927216632439931,0.6246964911327968,0.6041223310562573,0.5920702421603918,0.5808380132707924,0.5573703564683594,0.5829070360316919,0.5478060741902864,0.5465258078714471,0.5692249916409224,0.5661656525224865,0.5464042739697277,0.5231595931537649,0.500909025506675,0.5005612967628448,0.4703378120539039,0.4564371849909454,0.4902017397751584,0.5008075491756818,0.50080990742401,0.5008099074240118,0.5005170511983161,0.4690494039138091,0.4647824177580642,0.5028086828619154,0.5427461803331459,0.5833667211074856,0.6328113577510557,0.6698788288389501,0.6703375689977582,0.6494154968854806,0.6832138942452229,0.7104664535812164,0.7207227979493647,0.6847307606353201,0.6854349242850484,0.7200320164072549,0.6571500488525954,0.5591121055439103,0.4796429245805802,0.3793312034196719,0.30210475723215424,0.19188934464534133,0.08414290820936543,0.01788542889220146,0.0,0.04284407611822605,0.11476792251914958,0.20890119973951735,0.2822408534572105,0.3539681147515248,0.4259429679366429,0.5041426293433089,0.5787539395101318,0.5982153623336153,0.6351252330198012,0.6358314873278212,0.5994394520152895,0.6086665808638996,0.6372097309311338,0.6084056969205216,0.5931442223813441,0.6187643416396282,0.5938847937201608,No
10,0.3738405838110812,0.3012195899329915,0.22560970318789986,0.17131198742438247,0.10107392370598722,0.08357631456399606,0.10159967800773463,0.1741724488412264,0.2523566205916565,0.33044584048818537,0.39647432356852574,0.4583739577860579,0.5364470213672976,0.6095388892861089,0.6618844716760353,0.6995906721319405,0.7632400128229331,0.8271571597725234,0.8655332549520858,0.8627916016651738,0.8827558999320639,0.9087200744233406,0.9081954901568854,0.8865201389809569,0.8998984011806308,0.8948480183733579,0.8693865416511355,0.8738944967715248,0.8854003242452779,0.8854181850817695,0.8804746810259245,0.8580781460644995,0.8548596257488099,0.8309468555460948,0.8281301156795018,0.828216329693356,0.8399912671007796,0.8658174125153777,0.8920810232080956,0.9183426283407824,0.9419787416295792,0.9427093195852811,0.9427093195852864,0.9427034164274696,0.9365795977720909,0.9165756500505746,0.938687622071282,0.9427093195853068,0.9427149578578472,0.9498903667276148,0.9708402923405406,0.9713546597925248,0.970745159718914,0.9488472438172146,0.9427076167513512,0.9364478462534378,0.9148787088327909,0.9140639793781492,0.9140639793781538,0.9140639793781592,0.9140639793781636,0.9140639793781687,0.9140639793781732,0.9140639793781786,0.9140639793781832,0.9141278912080736,0.924491970062927,0.942488998418472,0.9393344219862124,0.9072813962800352,0.8857927546738815,0.8869930509772881,0.9108554310992792,0.9369748523283116,0.942705232783856,0.9427093195854286,0.942709319585434,0.9426619668214856,0.9267148205874488,0.8880619857935979,0.8294329157371148,0.7753587969604969,0.7004188704597074,0.6432721296839774,0.5721678563142256,0.4939884903397141,0.4198911350475476,0.36490411311261495,0.3067932866059322,0.2384877742156002,0.16036769650927285,0.09140645180291697,0.033118612233080665,0.0,0.028972780427795275,0.08139620450121221,0.1411878302384535,0.1818816207833045,0.2414424922066947,0.2904458147066316,0.3417753767998675,0.40276820310657735,0.4690691145369761,0.5472351227248775,0.6254153968775147,0.6976567143350523,0.7537270205839284,0.8214810300698807,0.8556836487188062,0.8968976282085532,0.9368858180267936,0.9427049300578676,0.9427093195854837,0.942709319585488,0.9418496585202508,0.9184001458558232,0.9140673472055192,0.9138869003121209,0.8965482311902551,0.8810119527250397,0.8552820018765233,0.8301679823268961,0.8281289047756046,0.8281279587567281,0.8281992083187206,0.8392770161682415,0.876294371168886,0.9018375993413515,0.9271923547651606,0.9526545740360866,0.956530722361704,0.9428368250936859,0.9427093195855628,0.9428979728612376,0.9602936438812936,0.9713375557713956,0.9713745452300356,0.9800325426151192,0.9871347443778248,0.9848911243400004,0.9999612956561904,0.9999999999999996,0.9996499525308492,0.9801863308837268,0.9542870955747618,0.9427927987011137,0.9427116278716912,0.945715604640943,0.9642335253956822,0.943867131392628,0.942711098101134,0.9450540695978282,0.9685453498083904,0.9493213905949928,0.9427612942240962,0.9524269953319426,0.9569257379020076,0.9428343242295268,0.9350131141819592,0.9091381799079898,0.8865274392136482,0.8854874428225652,0.8964028704335942,0.9326858880038756,0.9204732230940152,0.9140690121989432,0.9142673081183764,0.9324902252755148,0.9423699297118682,0.9217187446895924,0.8758095732692417,0.8400530915058977,0.7881897015620054,0.7178177052012313,0.655265804111631,0.5899266928121984,0.5139610029620578,0.4598006802861456,0.3988325985172021,0.3344605375895475,0.2580549256004434,0.2094201891247751,0.1762552158440993,0.19962836993399025,0.26025078651936306,0.3145281344840183,0.3908652655940705,0.4690484913256179,0.5449500403318548,0.5990836388544092,0.6749567259108589,0.7493773778699775,0.8039332068771592,0.8732638148680105,0.9150470430163103,0.942021983730783,0.942709319585742,0.9388229684621768,0.9203815751403828,0.9419614447897584,0.942709319585758,0.93928050390589,0.9159324617725696,0.914064395626878,0.9095811515491072,0.8868848861259999,0.8775849893981937,0.8572939578311058,0.8567732989641894,0.8576370401834628,0.8793039109740453,0.8939213941327728,0.9136706898087072,0.9147561794217052,0.9358579116808009,0.9427012973457044,0.9427093195858248,0.9425754826203908,0.9258951727321904,0.9141523503155384,0.9140639793786424,0.9144130970693928,0.9332839278708708,0.92018964320583,0.9140687851545776,0.9140639793786628,0.9140456644531184,0.9024445204563096,0.8892654802658062,0.9069428449815332,0.885916487610769,0.8652005989215712,0.8799564151681127,0.9055240360174373,0.915406183291554,0.9355881851887546,0.9163490617719874,0.9140656822126938,0.9140520217000474,0.9053884080042338,0.885798203743152,0.8931211847081291,0.9285024448323012,0.942578572064757,0.925672039778727,0.8912729546504559,0.8854250720999368,0.8879530478947166,0.9119526788858664,0.9140639793787549,0.9140639793787596,0.9140639793787648,0.9140465726313473,0.9025385409917006,0.8667238226144529,No
11,0.9264177924059284,0.9253942947148951,0.8935936885136629,0.8689602375638508,0.8512941549049717,0.8655223980159654,0.8956452526373635,0.9247679328487486,0.9264176202423045,0.9269085111942444,0.9476927899536703,0.9626786786570536,0.8938316915581064,0.8304190464964201,0.7520417365223011,0.6690257366663919,0.587288418017923,0.5244836368472563,0.44525449565997993,0.3626272180977401,0.3031437494209537,0.2682100106360505,0.18905878000835094,0.11132071979646296,0.06402216295345209,0.05480078996591242,0.10349603220851522,0.1673530273054653,0.2489244581672652,0.3030449301510987,0.3631816624193744,0.4253128339309309,0.5059612313381785,0.5889440235890855,0.6637088232773705,0.7252844156544871,0.7321513771987673,0.7428064883807965,0.7611645862686318,0.8095205686905178,0.8852506581249253,0.9230318662302864,0.9191537820138612,0.88592466378525,0.8974920767879535,0.9181277519454074,0.9239095517841632,0.9034086793722321,0.8997873117510942,0.8776095449020218,0.8532391008767775,0.8457672626018722,0.8125689301402357,0.7996113713950743,0.7824088499469437,0.7927416749981457,0.8214062438113219,0.8040606869840409,0.8281237818286362,0.8666547423190999,0.8873972121092084,0.9211348096157329,0.9288563179100144,0.9495220822165678,0.9517103673215884,0.951710745517092,0.951710372966298,0.9495918255530232,0.934548591471814,0.9513269778288302,0.9675301502697184,0.9517324451974564,0.9166414449462844,0.8816259398691564,0.8987071369318267,0.9442659153675529,0.9324527803105064,0.9262145131256004,0.9111626214101792,0.92176505960561,0.9264694451043,0.936489932630578,0.9386456203294112,0.8914979300705337,0.8759936416866534,0.8768966376885476,0.8963080996536821,0.9037793128025156,0.9344513451088918,0.9515302030785112,0.95388916856096,0.9663803425609564,0.9031364208011654,0.8201877415689127,0.737178496076702,0.6609846781490321,0.5958898459997304,0.5134001177070866,0.43190423595457617,0.3695021669313849,0.2896296680189949,0.2078951373981739,0.14509035622750946,0.06646102295003331,0.007148643162001367,0.0,0.049736216747339856,0.13103131640802926,0.2140016585690452,0.2876199936639803,0.3549961538799021,0.43781882737567335,0.5208389123494759,0.603051338559621,0.6668930790690313,0.7422649964043164,0.8046380862048776,0.872540032153883,0.9019495726072568,0.9232504144098526,0.926417391631598,0.9264178601424459,0.9264178601424459,0.926417442433979,0.923750425915447,0.8917902775701485,0.8560533182813409,0.8505436029609124,0.8505392378867507,0.8509557494636617,0.8675452099723637,0.8759725504530431,0.8910372331882135,0.9234153193329736,0.9442567481257688,0.9349280155679108,0.9430842225091416,0.9742085934506166,0.9771404888616848,0.9864031901110764,0.986314686787936,1.0,0.9629199415326141,0.9517515900728988,0.9517103616768868,0.9494609160760472,0.928860463211726,0.9345548320327453,0.9688167798181267,0.9573744894601486,0.9285174764154318,0.9264223790349329,0.9302123113049028,0.9504277068345584,0.9517102657168356,0.950022876444354,0.9179320602716264,0.8783552948387943,0.8785697757273496,0.9029974752376724,0.9216256742314544,0.9052112632886384,0.9239852614790368,0.9275461051572664,0.9459406721966336,0.9115230259237928,0.8453837816328695,0.7722255030512368,0.6894065965542221,0.6203700640640419,0.5484470626023049,0.4664037908607606,0.4024206375255832,0.3247395169900056,0.24172932903517494,0.16466990614018684,0.14607182447835498,0.19022129542343655,0.2588377627847671,0.34170586295201266,0.42472592393579933,0.5063928737187076,0.5697418197568536,0.6484934538408789,0.7274864112984529,0.7887604266155503,0.8480335257986704,0.8938813067250919,0.9116767029376608,0.9035501169780992,0.9234952285567672,0.9264158532300532,0.9226650788949255,0.8892733723509973,0.8546838665388758,0.8621274478581036,0.8603554529080508,0.8273102988624492,0.8363528452587721,0.8259904860618361,0.8403045388305221,0.8504851833370521,0.8420744962347141,0.8324324988003502,0.8687063897726439,0.8921094472923006,0.8763540289403808,0.885397631205743,0.9234761291762671,0.9264174537234062,0.9263032460229708,0.9139651141959496,0.9194726209422353,0.9278803148439874,0.9536178154965382,0.9540577138271528,0.9294757257382988,0.9264204971468466,0.9264175271046248,0.9246376386884424,0.9089378391335136,0.9254954909033142,0.9352488101897274,0.9491176017628308,0.9249578117209944,0.9110090035630004,0.9439834885997556,0.9510841556252636,0.9330017742094494,0.9249305460057212,0.9043073482125391,0.901127856883038,0.9015912663244664,0.9187980067007536,0.9178348174838424,0.9155902447259868,0.9261464152277368,0.9007310985050028,0.8252680248115363,0.7622422527074058,0.6826006471359016,0.6203072198978159,0.5401784627930821,0.4585920712582565,0.3961224277935993,0.316410090251424,0.23474769429187606,0.1972416268812012,0.23380919252172785,0.3041189729800702,0.3688591191776225,0.4512039438632716,0.5288850643988479,0.5928652853322949,0.6694677531243802,No
12,0.9713706440331472,0.9555138942623912,0.9432306822574829,0.9322969299815682,0.9164848873002516,0.9148331083490336,0.9126667473375982,0.8969125334146031,0.8953190414658319,0.9036563822218396,0.9002839328216501,0.8845151755022185,0.8691862139414113,0.8564362739815148,0.8561156737009852,0.8561156507887815,0.8559918310455941,0.8403428697146889,0.8057657720894369,0.8039932701184456,0.7815521610987464,0.7814186581841072,0.8034860503319696,0.8408720984036586,0.8493731970214569,0.8368636451494122,0.8352465693775684,0.8101357704198318,0.7523456341958483,0.6871541605373741,0.6284594354484505,0.5759103670311703,0.510989787692846,0.4461778273472361,0.3948248293730914,0.3348235098677388,0.2700266423763198,0.21867364440217507,0.15868548985822928,0.10050240571726697,0.08052692627930114,0.1152376243275075,0.1782593986455745,0.24184879931321035,0.2913357650090709,0.35441143776392714,0.4196521591386597,0.4848933387575181,0.5501345183763764,0.6153756979952338,0.6806131567698723,0.7422853250530599,0.7923830447628029,0.8567681542338361,0.922008365144228,0.9851228195250096,1.0,0.9611291847167068,0.9265780685899244,0.8928636984941476,0.8625035773816152,0.8662172946955455,0.8632053244550395,0.8755064827900481,0.8773401795290279,0.8930943934520292,0.8952598086672099,0.8943960778294908,0.8744173511140052,0.8566049993767968,0.8526107691547393,0.8361795559138332,0.8127342110055529,0.7889524223341944,0.7670488357546971,0.7434614934697539,0.7112880072859351,0.6824074706481364,0.6627684854287197,0.6620830465450211,0.6847394411339707,0.7030792862548303,0.7294926121939338,0.7516489800392345,0.7628985455184996,0.8039932013819291,0.8238560870166083,0.8372934949878612,0.8529313236109042,0.8678422996053525,0.8594068355365612,0.8722220890084893,0.8826216931037174,0.8929128715676531,0.8789923543836342,0.8930952475995388,0.8952750160825089,0.9003996336309763,0.9036563822220036,0.8953333030849637,0.9005150594936766,0.9131203888526088,0.8975831314785663,0.8866092693789867,0.8756581743778381,0.8626236740078235,0.8417190442363891,0.825811278806837,0.8165965025082791,0.7991404957071286,0.7726469310002457,0.7389469797220101,0.7064486829030292,0.7024171241779196,0.7370602978865568,0.7734570041449307,0.7776406946589973,0.7651910092917809,0.7573100971367355,0.7251977785434138,0.6676040286589044,0.615055074802656,0.5501476604257379,0.4914529582490199,0.4389038898317401,0.3739833104934167,0.3087911793732183,0.2521543508450028,0.19767960269959106,0.1325910604646734,0.0682062259401146,0.019591193158821518,0.0,0.03698262152906162,0.09349528663099173,0.15868744066339602,0.22392862028225435,0.2891697999011127,0.3542584337848553,0.4087331819302702,0.4653700104584844,0.5305621644908891,0.5958033441097483,0.661044409167574,0.725353152143168,0.7754592045049273,0.8371409528478448,0.8934399651789615,0.9255590222536592,0.8875493820179088,0.8436989884570107,0.8098928001441341,0.7867916901903156,0.7713244445133554,0.7585745045534589,0.7582539042729288,0.7578216120930428,0.7404683001930716,0.726994060140024,0.738450263329979,0.7303484990442461,0.7309913264865986,0.7216203528679013,0.7299144625381729,0.72641986476164,0.6892792141680255,0.6678451734749471,0.641722020710211,0.6260187731939713,0.6033637661290054,0.602168325917519,0.6199918892792602,0.6455310763887896,0.6730335016362838,0.6897090720838324,0.7155252696183876,0.7260433202627343,0.7385142672096361,0.7439365033550271,0.7578246849997421,0.7582538813607878,0.7582457624267676,0.7534104956204013,0.7391702281255048,0.7387180684741209,0.7456187470550621,0.7576423089678839,0.7439283844210318,0.7338569783453766,0.7231706064197558,0.7378255031517473,0.7391696782325785,0.7512445534245074,0.7406462065884156,0.7517529447752453,0.7670628635155863,0.7742055840665882,0.7578901403714684,0.7344938210496412,0.7194344405105393,0.7219735310621189,0.7566326517723785,0.7930293580307533,0.7973954245766999,0.7973463989902498,0.7842683994785227,0.7311130962619758,0.6801281769640544,0.6153756292589425,0.5501345183767028,0.4848964116644865,0.4231568345632488,0.3730507822014908,0.30874203922589816,0.243509093102094,0.18310363853373168,0.1343204463279042,0.0987311875045247,0.10874388564013636,0.15887027493956474,0.22392862028241733,0.2891660790570572,0.3508382473402443,0.4009359670499864,0.4653210765210205,0.5305621644910521,0.5958033441099104,0.6610444091677383,0.7253531521433318,0.7754592045050903,0.8371986670452984,0.9015033684057836,0.948734207256784,0.950932160866958,0.9106590910066474,0.872496882493643,0.8455230363786201,0.8300566448490941,0.8228671652832364,0.8491268578489959,0.8561024858277677,0.8561153758427014,0.8548325235569219,0.838915003759467,0.8356894226027061,0.8205305102363591,0.8104119714641169,0.7940988360915346,0.7679985105388081,0.7517031796024733,0.7303484990444256,0.7179654500432595,0.6953498528648092,0.6819395513613906,0.6973577125466246,No
13,0.7923075916462969,0.807609515016261,0.8145967600641617,0.7938896020948358,0.8026312121192838,0.8209298711231137,0.7986957210592722,0.7972519334186585,0.8206217256408492,0.8046221760437642,0.7918131269379636,0.7913280694489475,0.7790609738157541,0.761542386011052,0.7857248163594521,0.8156809712201571,0.8415419167838953,0.8456081119139855,0.8443117577912518,0.8290144687432908,0.8093582206950529,0.7651826548496943,0.7182241511480147,0.659527524623392,0.6137162295241958,0.5568314990365097,0.500175024524387,0.454150374790605,0.39503102371276055,0.3382412317608203,0.29227782039416184,0.2351061798160892,0.2027037500014286,0.2182826376734761,0.25657239395080866,0.3139183016301472,0.35949634905852706,0.4171119327509296,0.4757909598009231,0.5214301418220937,0.5789153040296258,0.6388419375222623,0.6932075075186748,0.7409243622992254,0.7995152824958129,0.8398024997358284,0.8697353994209567,0.8494961273047745,0.8253397269084513,0.8101971553775846,0.8072681476288519,0.7931721402555243,0.8025406299128943,0.7913836368344693,0.7670473249936522,0.7630927904454978,0.7554061897810014,0.739019473142454,0.7200175147672092,0.7058710815695615,0.67709275069579,0.6651361983437587,0.6544943925283659,0.6619041345943635,0.6786322195584713,0.7102490664283483,0.7408133844408176,0.7680222656319753,0.7927511409585501,0.8085857794949183,0.8151427615140916,0.8273628728161193,0.8275648968297067,0.8275560383296332,0.822657967582574,0.8109774641957284,0.8264274532655373,0.8426896883902066,0.8273192645552023,0.8108980716624066,0.8099825900753048,0.8228323587208721,0.8142032950879687,0.8093622073402593,0.7978394392333308,0.7963356241100334,0.8152516436710537,0.8158710018526727,0.8095442183054908,0.8052658661577454,0.7949129757744964,0.8086494582428725,0.8095155393899138,0.8079073703738775,0.7931913280611163,0.7874766880535371,0.77399716005357,0.7820300351765495,0.7773659932100134,0.7759128928524279,0.7879381665984821,0.7745225079494857,0.7627608305313869,0.7530063305254829,0.7386230115925874,0.7373776084903447,0.7469468150884384,0.7755548874930601,0.7977953161462392,0.8093779388322782,0.8160771184187965,0.8433399492131262,0.8371022657063345,0.7940179970055539,0.744043083256642,0.6861201623306625,0.6407514839674651,0.5823825110980012,0.5241863695670954,0.4788785545269421,0.4205793438480967,0.3622525768035296,0.3170058071466526,0.2598032067700773,0.2161940643084983,0.1974997934778009,0.21929108352980586,0.2711546348572824,0.3174361108296888,0.3735165477834648,0.4334620056108025,0.4934126429783374,0.5533632097975327,0.6128281544215675,0.659352589543035,0.7151358795284688,0.7684472276005869,0.8162266837699601,0.8599612534642547,0.8712389228773154,0.8575968280041629,0.8457987537308247,0.8355939881667895,0.8161825794587112,0.8194291129347486,0.827358362131895,0.8161654009022463,0.8065921485039311,0.7914012999797002,0.7741048064509712,0.7490587371790269,0.7231360179925508,0.7067000165349402,0.6850227205502639,0.6888595114526783,0.7036144092937975,0.7313873268539162,0.7605632705386856,0.7884839776352237,0.8168037078467734,0.813619111776275,0.7990261834388686,0.7915134904015395,0.7914671104573241,0.791466693539391,0.7892353978264368,0.7631519099852349,0.7281479695148749,0.7202195326163583,0.7389866493747408,0.7553998138599192,0.7629702253430914,0.7571456697390886,0.7774805949171149,0.7920375155409136,0.8060924478598337,0.8175589026588828,0.8441650374079326,0.8455281621008046,0.8363512779931641,0.8304103798769513,0.8584178338527502,0.8998592034199531,0.9421080039192766,0.9764779155828088,0.9760042712546896,0.9749109460955035,1.0,0.96430765597729,0.9150230178658084,0.8630501870129552,0.8163610147236446,0.7724892135727361,0.75578818305355,0.7544204167814055,0.7257468809358323,0.6955458439130231,0.6834917564093717,0.6895506900039878,0.7010547061355354,0.6981026265075521,0.6829724271789384,0.6674013220442219,0.6696747013029802,0.682704268919025,0.6861553010846344,0.7098468482120492,0.719208546222986,0.7193542684406009,0.7298281173846579,0.7526436856859231,0.7390702606359465,0.6970482823031636,0.6477415072012622,0.5970807017553699,0.5492887458221998,0.4950857974333958,0.4351611619140989,0.3775452422448176,0.3319669235466898,0.2733572381281788,0.21340706868561155,0.15345668620240316,0.09471615882426797,0.049537046816331635,0.003881161805883604,0.0,0.03989869079972763,0.08985794307251549,0.1417564691449016,0.2016575931212592,0.2615790845028729,0.3154929278114777,0.3636380106616346,0.4234112494051887,0.483316402099069,0.5358523813182576,0.5853403723192199,0.6451214353742247,0.6978607574149747,0.7469099520059292,0.7871977645473853,0.7708242098821579,0.7434792087802151,0.7426278105270545,0.7445463669633496,0.7373046806748929,0.7288683331159187,0.7259272897299356,0.7187361185992875,0.6932353107596745,0.6853719404354663,0.6878193362301551,0.6617196944098693,0.637718195138357,No
14,0.9430584071467464,0.95509464480168,0.9540648635285724,0.9403378887604354,0.9263066564187268,0.9211465126326336,0.9143709413664922,0.9237872826584056,0.93363208610026,0.9398589330773292,0.948972278337136,0.9557024268433878,0.959879425372248,0.9713283575340026,0.9716950615090254,0.9716943792554948,0.9697369305455892,0.956965765920915,0.955716370651016,0.9557161544249992,0.9557161544250046,0.95571615442501,0.9557161544250152,0.95571615442502,0.955716154425026,0.9557169490136732,0.9572462975310408,0.9700155179222588,0.9604958364752574,0.9545323528760415,0.9333523484760478,0.9053854478075682,0.8931146077815457,0.9114036652818048,0.9382539339067052,0.9483907152234085,0.9544368176115291,0.9425738158208096,0.9402546871250106,0.9022323628458636,0.8529495970208893,0.7980889357194751,0.7432072166200614,0.6927179408441728,0.6490181345257264,0.5944988164348328,0.5396066152421835,0.4847149875185495,0.4315500646949242,0.3895296981657728,0.3360162120330068,0.2811242947648909,0.2264279631895152,0.1821430530497008,0.14188691107848814,0.13335174570472194,0.16080576208828545,0.2083928448398633,0.2632274068056315,0.3121425177570982,0.3572282225528061,0.41196334571194937,0.4668555912242183,0.5217439775983448,0.573948892457357,0.6163348872722261,0.6704457145379212,0.7253379117015144,0.7802252987660201,0.8317188578513535,0.8742155601849375,0.916394956802407,0.9530525193176648,0.982766165241856,0.987697747515888,0.9933484147300012,0.9927175465212096,0.9875265427089964,0.9773700921444092,0.964113426151278,0.9557885214028984,0.9557157192870576,0.9544521953412096,0.9389803559786528,0.9207925514874602,0.9082249339953852,0.9077834381698996,0.910530117936052,0.9274859294707594,0.9394641618371158,0.9397373373233852,0.9402048312219842,0.9519548646534276,0.9557094732763742,0.9557161544251982,0.9557156333339204,0.9543334996771806,0.9413101462507788,0.9385151870768832,0.925791720374428,0.9338660067019506,0.939662936458129,0.9324317377966462,0.9353569374333506,0.9397264947363352,0.9397372473411978,0.939739507583954,0.9417421362488856,0.9545461644696532,0.9476535500538908,0.9294990919915324,0.9088357611593638,0.881665798094525,0.8615620929524299,0.8661592029596044,0.8967472234450535,0.9217808591030191,0.9355915278083162,0.9397156626801042,0.9333570682603992,0.894571538477896,0.8487173708429641,0.7939532185920624,0.7390616660774789,0.686165223611999,0.6440273569980022,0.5903629300870539,0.5354708981147702,0.4805786526025009,0.4256944453910636,0.3747856418358908,0.3314466317888447,0.27698850377144524,0.22209633212520874,0.16720408661294006,0.11231184110067073,0.0581301100336491,0.021150544111052882,0.022173860687400012,0.060222559233462876,0.1145665591148115,0.1678218924398167,0.20970329435625626,0.2632660051182505,0.3181577617716864,0.3730499307318862,0.4275024960153311,0.4708087064013435,0.5217556488455424,0.5766400822489817,0.6314909556863366,0.6802193833035588,0.7254852488627028,0.7797681387531492,0.8229197228375411,0.8688780356604369,0.9102542512718288,0.9479040759357562,0.9816153990987556,0.9876616619776536,0.9881582487342656,1.0,0.9998855833329268,0.9881373594375078,0.9843347846952629,0.9722238650101684,0.9716851070092359,0.967339852389312,0.9496708573133392,0.930313700823952,0.90982292456567,0.9081657293763206,0.9194335827528484,0.9282861303282729,0.945716875900728,0.9555711544422034,0.9557161544254068,0.9557161544254122,0.9557161544254172,0.9557161544254219,0.9557161544254282,0.9557161544254332,0.955605097078037,0.9467658088655329,0.9397908542463824,0.9397372473414016,0.939737247341407,0.9397372473414118,0.9397372473414176,0.9397769881056596,0.9458476751875384,0.9566762477775091,0.9609325181599117,0.9452885432174972,0.9387699262552288,0.9191090638817904,0.8861023168698439,0.8670308809766385,0.8741303175597492,0.9025768904459937,0.9227188590169316,0.9290135372177081,0.9394870129521448,0.9279352198136132,0.8801504241170126,0.8382703588199898,0.7849289745590635,0.7300378857202086,0.6762345384443944,0.6342055380532939,0.5813374339399311,0.5264475743838823,0.4723501158133989,0.4299982280480696,0.3777458933208005,0.32285744032603225,0.26796519481376396,0.21308686859438145,0.16335682525213824,0.1189778749198871,0.06439491610462666,0.016988001628818198,0.0,0.02462889312041749,0.07560452327247913,0.1233438374084721,0.1695637162445982,0.22435217783142347,0.2792444233436913,0.3341366688559613,0.3890289143682293,0.4439211598804995,0.4988134053927675,0.5537017917668945,0.6059067066259051,0.6482927014407762,0.7023979374316522,0.7533698873672772,0.7966378070223481,0.8476961620286803,0.8887309844893192,0.9223321360607328,0.948180261854632,0.958141349123562,0.9786436206033224,0.9745755391640034,0.9716925726021476,0.9679337717378612,0.9561837383064264,0.9557156910841038,0.9542188659199092,0.9426579833969696,0.9495208697843708,0.929068291968202,0.9157388671704872,No
15,0.8673395147020884,0.8673395147020893,0.8673395147020909,0.8673395147020937,0.8673395147020946,0.8673438067530732,0.8773674873542481,0.9122803639490548,0.8881914109794664,0.8674889743150471,0.8706160162287997,0.9092131182495508,0.9342678911143034,0.9581195168943264,0.923054351477144,0.9131829040778195,0.913178667647375,0.9131786676473768,0.9131786676473777,0.9131786676473784,0.9131786676473804,0.9131786676473812,0.9132861231036512,0.9290727075652851,0.8902031822044831,0.8081269097621249,0.738410550410693,0.622592211780411,0.5047657380179436,0.4228926077300965,0.3477256579349133,0.3212307196823678,0.4018257941875092,0.5215672780059384,0.6388147303074351,0.7211248527260299,0.8359706062416112,0.9534562490247778,1.0,0.9333496708705216,0.8917733659074552,0.8675273260568792,0.8673395147021257,0.8669308561111935,0.8367061543698853,0.82157677061599,0.8214944659805772,0.8125543950944092,0.7565928741078771,0.7298542126667984,0.7043601448193089,0.6797041220558775,0.6401228398744481,0.5935616492023819,0.5486233149374105,0.519026334853594,0.5007456173540037,0.5006262911400068,0.5006298230437265,0.5086630891069301,0.5616690530788251,0.6223493500257469,0.6825719763643354,0.7419423437739017,0.8007010180242444,0.8214814507763366,0.8145376492101164,0.7779830808915094,0.7910703220203832,0.8211052009186934,0.8215003617568888,0.8215003617568897,0.8211186986714392,0.7912731049509931,0.775744922752434,0.7756612088116279,0.7756612088116288,0.7756612088116306,0.7756612088116315,0.7758426282199178,0.7994401404269542,0.8214797635572628,0.8152832371557519,0.778218604299731,0.7891977194828463,0.7868182747462944,0.8128135143015562,0.8214814507763624,0.8052979028452691,0.7915935347976699,0.8211153242332738,0.8215502896949491,0.835234029086946,0.8668350460934366,0.871225171518395,0.9094567112110354,0.8977636076252811,0.8678385136810487,0.8673395147021871,0.8673395147021887,0.8673249421230641,0.8500423127988626,0.838078335818266,0.8670017193131478,0.8673406920034346,0.8701547505203413,0.9173876930338248,0.9446091657728184,0.8431058861676668,0.7396035908694776,0.6485032157763237,0.5287589477515677,0.4086783431733778,0.28932696881371456,0.20397297372456613,0.09578565709112664,0.043651445310424634,0.06572558362570291,0.14111725207132952,0.2578093823942256,0.3420125922145232,0.4539823278856528,0.5740588165445475,0.6938379408033262,0.7851407868520202,0.8873936170373415,0.9484928998135044,0.9096972210508544,0.8701855001051637,0.8673407476239765,0.8633591539379024,0.8249614119501603,0.8000606760389353,0.7961773747560166,0.7949301917864346,0.7773835667616034,0.8110995342245024,0.7821720726253503,0.7415932281567139,0.7014352166286777,0.6628795102731226,0.6063841957383733,0.5846000559773588,0.5305647587020879,0.4906622448627278,0.4554722193837719,0.4215648678821404,0.40897782421296736,0.40907187713960536,0.4284051688289914,0.4987732537289249,0.5539815070253802,0.607593772461338,0.6682826237573211,0.7284386237526324,0.7736766035199585,0.8012596488803371,0.8214835365463315,0.8238351223942821,0.8606479250447805,0.8673385135326761,0.8673395147022349,0.8673395147022376,0.8673395147022394,0.8673395147022402,0.867339514702242,0.8673395147022429,0.8673395147022447,0.8673395147022456,0.8673395147022473,0.8673401914187098,0.8698369377649966,0.9027778401150748,0.8705392467581641,0.8785875870605144,0.9125068028781441,0.9131786676475224,0.9131786676475232,0.9131786676475252,0.9131786676475259,0.9131786676475278,0.9131786676475286,0.9151300097106114,0.9512586900901664,0.9727988023907016,0.9996956626903568,0.9606778276256236,0.9138430169244424,0.8697396540101785,0.8826113619234093,0.9397031798848818,0.9567837769764678,0.9194829658077629,0.9372768999729582,0.9580011601929002,0.9211283539657726,0.9196567663479148,0.9570369911372048,0.9534334774072776,0.8711683936242007,0.7513173722383657,0.6478246326581171,0.5566567672464506,0.4374276444044334,0.3492303391588241,0.2425343751391331,0.12290350384046622,0.03455227245339376,0.0,0.0589562016457581,0.14126167696054104,0.25983333078473336,0.374558739618406,0.4568843907517621,0.5742385779287282,0.6943085193829157,0.8028489262091698,0.8892252410245334,0.990222171548056,0.9681777821017185,0.927603479976451,0.8887306034601776,0.8674926269190602,0.8673395147022891,0.86733951470229,0.8671299479642833,0.8408491858338252,0.8212152381262436,0.7907654755432016,0.7751145432038689,0.7415358555169309,0.7005457928333332,0.6466626249650059,0.6037222702586531,0.5516262377090015,0.5068789819979331,0.4578307007061584,0.4320165575617505,0.4091224935235092,0.4118404456312916,0.4514901660549189,0.49726198326841603,0.5566159982418659,0.6167962236387083,0.6775064608073329,0.7367448166316111,0.7812624065488505,0.8335954097220757,0.8761840332669131,0.9123785742271666,0.913178667647582,0.9131786676475836,0.912341455407133,0.8760984138346473,0.867343343248872,No
16,0.6508996861103102,0.6525936744402485,0.6635517286562549,0.6510902028294203,0.6498692795298829,0.6264978920311983,0.6226028578624407,0.6195899024704388,0.5945582087140964,0.5688085979818154,0.5609865064079345,0.5265565689635587,0.5070055169969714,0.4833234607617531,0.474549737930452,0.4114723502814255,0.3327706989561716,0.25397372993115,0.1751767609061292,0.09638737865961698,0.02611935280910549,0.00426772469243808,0.0,7.042683902724889e-07,0.0045490673356280995,0.01533426693975315,0.07048756856405536,0.149096073975318,0.22789304300033786,0.3066900120253595,0.3854869350160404,0.4635259684545283,0.5084326705623128,0.5087195051249931,0.4871673581797213,0.4985055121299502,0.5221774806137884,0.5597521343805343,0.5998378013456107,0.6379980000559962,0.6517707720264663,0.6839164633690005,0.7017896877113432,0.6876005756956958,0.7069682682007081,0.7075002284111327,0.7075002284111398,0.7075002284111469,0.7076393837087821,0.7212618531156942,0.7169662282162057,0.7075352027549147,0.7028419539037887,0.6806205350151937,0.6792000177478248,0.6795137828777711,0.6988611884328484,0.6941567715757357,0.6844588522440618,0.6875059544981634,0.6815356394669183,0.7051506591255756,0.7070330420659539,0.6872252041553133,0.6905710498885099,0.7016008389536785,0.6802010837454655,0.6851206580373419,0.7068218426449291,0.7075002284112677,0.7074715288983762,0.6943908901355678,0.6804967095180614,0.7122036568355177,0.7103697667156701,0.7075029837211679,0.7075002284113051,0.7075001042256512,0.7062500500585585,0.6830020846464548,0.69686917959431,0.7074792051932879,0.7075002284113414,0.7075002284113476,0.7075002284113538,0.7076441014938921,0.7217785459914192,0.7278356739678915,0.7101708135314273,0.7284629226353183,0.7088780605265971,0.7074904510055835,0.7004867120525371,0.6888433127052118,0.7071471294002287,0.7075002284114142,0.7075002284114222,0.7075002284114293,0.7068381048952594,0.6847929017324286,0.6586812528204553,0.6431982632427284,0.6223074534481863,0.5994586655317629,0.6111997255869901,0.6501395373959613,0.6786723506660297,0.6988905044279918,0.7074854857983159,0.7071469206399335,0.6862508917987529,0.6292895908874727,0.5514954667175664,0.4946073429221038,0.4547384598208777,0.4563608715569054,0.5022551694667752,0.5605923844666774,0.6164430926162061,0.6912417554960659,0.7700383851516528,0.8486348687458842,0.9106356938385844,0.968466349137174,0.9368370968502276,0.8827475043243607,0.830358244294692,0.7779699430809921,0.7277795629223083,0.6892399175076513,0.6736050521402359,0.6593901151737609,0.6674855591256157,0.66380836209914,0.6727384636010263,0.6516387986171845,0.6469010534430732,0.6252701023196479,0.6435619694756114,0.6249243760127139,0.5993106684377651,0.6097353243937289,0.6022706164166007,0.575970226677113,0.560480270029204,0.5246707315048424,0.4884013371846376,0.4724957094555102,0.4531112239894077,0.4527974588594748,0.45421797612685705,0.4764425153063159,0.4844090931434714,0.5174345279074433,0.5453596090739228,0.5873528007501245,0.6350758952070144,0.6511784861110663,0.6707954702163632,0.6964009758277876,0.7074778095036627,0.7073259724001253,0.6901161599397807,0.6811189940539157,0.7001436399039069,0.6710836089567338,0.6611344903335437,0.6544092214951021,0.6687698505860502,0.6676493125587863,0.6552966055644647,0.6717578868805361,0.6515964795987821,0.6509051273911362,0.6561981032278745,0.6784564737837129,0.6791662941470125,0.6646972068867814,0.6671019467650177,0.6695172421865041,0.6622742426644259,0.6792565707038299,0.6968425775699321,0.6961697072820994,0.6794593480063544,0.6894401376096364,0.6912396036097452,0.6583990373826727,0.6747496225858076,0.6894356258588252,0.6822117068976445,0.6809640119354214,0.7032870086415711,0.6874560008899846,0.6820186659579464,0.7049732693269939,0.6862446955871495,0.703287382437789,0.7074998729839472,0.7074998044677279,0.7024022005289292,0.6804502654562987,0.6792872420835621,0.6907910199178784,0.7073747591508064,0.7069031538963526,0.6854801749767271,0.660100613888202,0.6755559767124146,0.7055829907556137,0.7032815970118196,0.6818708919214642,0.7019561696782062,0.7013006356866645,0.680031544148537,0.6852758468857929,0.686532263311888,0.682329409351706,0.7059198464120686,0.7029517423692453,0.6806629097040173,0.677070202035678,0.6523788943076023,0.6266554608617301,0.6226033647354243,0.6236402740565592,0.6488394053275806,0.6779556209519124,0.6872980815732963,0.7070495141478612,0.7072204744805197,0.6834617663007019,0.6477323787671483,0.6048294470268236,0.5314223535501621,0.4528455117951107,0.3989880503327634,0.4049670409176929,0.44932201361050383,0.5196262632816029,0.5759852117929127,0.6444088721313768,0.7048473065420837,0.7832311818615421,0.8487621379349553,0.9126835134894038,0.9891392963965592,0.9999999999999996,0.9392807446270096,0.8860950216756813,0.826915036755953,0.7635585351188037,0.7109425592049239,0.6806206670500612,0.6608820185415598,No
17,0.9010922919933652,0.8909812393542281,0.9150916674291444,0.9412230121134773,0.9295096621179813,0.94335645911386,0.944964086743187,0.9449645107777941,0.9449645107777992,0.9448618868740079,0.9295801450129576,0.8720769282821309,0.8094113467310593,0.746741344881737,0.6840747716641409,0.6249006264128321,0.5766006110192263,0.5147304377074091,0.4520605534757536,0.3893905516264309,0.3273328852096657,0.2785037098210088,0.2200451402467616,0.15737976206976967,0.09487650827428597,0.04413211100156955,0.013875770529616194,0.030858032266845026,0.07568249380733016,0.13543576756361464,0.18300917343511006,0.24377112538421164,0.3063967815053425,0.3618881999862449,0.4132417590171982,0.4688781327360445,0.5039205555729662,0.5637840931628944,0.6243482394809101,0.6717997776386221,0.7331218273089486,0.7929939322516812,0.8078146749058939,0.8020985664750335,0.8210417343102718,0.8435845368806878,0.8909684383687257,0.9204305254498027,0.9274856749061032,0.9382060553998466,0.9268514797295929,0.9262953897808596,0.926295292937228,0.9264112906054502,0.9363922852523467,0.9403588280689656,0.9267323142738592,0.9179172750936626,0.9077576762658373,0.907626075096633,0.9076260750966384,0.907626075096644,0.9076276299309662,0.9095709417918116,0.927662076877982,0.9536277908334408,0.9635621669209518,0.9618302698993336,0.946977527531371,0.9571526726227808,0.9573847504150049,0.9472421251981801,0.9742999691925625,0.9822851438209872,0.9785935605331716,0.9643195024762878,0.9638532085445384,0.9749615588365144,0.9769125397828636,0.9653551232274292,0.9797941784051912,0.9823023757844348,0.98230294645925,0.9823598999371388,0.9906612039040024,1.0,0.9855795023333802,0.9818068245329794,0.9682820453333988,0.9641791700331002,0.9755391081184172,0.9609518669723518,0.9440232034967542,0.9253110485829654,0.909203471137528,0.9244528836566044,0.9543569849478062,0.9757288730732698,0.9802597205750536,0.970185961658899,0.9719893125166964,0.9778524424555716,0.9736107478326632,0.9708645793981696,0.9814791437942764,0.9536902623671542,0.897908301351126,0.8481929893892102,0.7859100523512796,0.7232400941885189,0.6605700923391957,0.5979000904898726,0.5352300886405512,0.4725604008456741,0.4111822659499196,0.36369482171604695,0.30321718463793657,0.2405648931537669,0.18488892701146756,0.1387949052018489,0.13162070386828484,0.16275052963874306,0.2153652266112034,0.2778547000547156,0.3306425454294657,0.384691584463928,0.4473017109406237,0.5096528919103642,0.5601151174300569,0.6166557842799065,0.6792704453706015,0.7348915984764615,0.7861444697103055,0.8482611442652721,0.8952398075391992,0.9194175089592264,0.9152693896636376,0.9397391293832942,0.9495378466863441,0.9532091432829648,0.9483397038708938,0.9627863172023394,0.9623553200240278,0.9508236602087576,0.9591109949607532,0.9333408128053562,0.8973789110625385,0.9021020887950568,0.9233306104521991,0.9088865200410958,0.8930053038688452,0.8889613184607228,0.8889494569193293,0.8845677899530124,0.8791672477627963,0.8990826863232577,0.8977373052148261,0.9041737071289851,0.9234985780044328,0.9391920061218983,0.9424282661213964,0.9266168203226351,0.9103898630358382,0.9171560819835404,0.932238707846202,0.944463749956078,0.931764773547525,0.9327283304984187,0.9529910602397184,0.9635136976315676,0.9636337286188787,0.9636298586865752,0.9600294801086218,0.9462329603539584,0.9593124668087722,0.9546000891095948,0.94765943277778,0.9598169918070673,0.946573597089562,0.956875420186632,0.9467339093986596,0.9405511187085992,0.927631994504662,0.9414108463810548,0.9346596109286232,0.9198800880855762,0.9041995428172802,0.8790012955813062,0.8714888693867149,0.8920832129743159,0.920656331175842,0.9265229222199198,0.9378705300981304,0.9478494185321816,0.9626787695126504,0.9624587856014766,0.9473104635272548,0.933395296209476,0.8922858151750233,0.8330589010206815,0.7739633420064593,0.7256290664704141,0.6637181203930749,0.6010482331064142,0.5383782312570911,0.4757082294077688,0.4130382275584461,0.3503682257091225,0.2876982238598016,0.22502869736915354,0.16428175016864133,0.116701197766242,0.05588549092574757,0.012113413184471344,0.0,0.033921503667537316,0.08579634676264858,0.13887765795132626,0.20145375869801366,0.2638887861840553,0.3152684580685867,0.3708105205821983,0.4334645482546789,0.4961309012390389,0.5556031560850743,0.6036817840641788,0.6654754441254935,0.7279825314894723,0.7801515493433849,0.8343309294085564,0.8790494529566799,0.9102197471440618,0.9333365188515764,0.9450450393145816,0.9564549044929158,0.958079254287132,0.9423470127382009,0.9295099459285194,0.943598965445326,0.9369242189737456,0.93305463592969,0.9447291996919408,0.9364699860892544,0.9264171419189012,0.9262952929378184,0.926295292937824,0.9260834114468324,0.9135144411750722,0.9077009965435071,0.9152858138741546,0.9254480734882828,0.9135828729756876,0.9190470383876423,0.9127253878017371,0.9161612910309382,No
18,0.5023613554987012,0.4751776328938799,0.4736605839160868,0.4736602945796466,0.4736602945796502,0.4736602945796546,0.4736602945796582,0.4736602945796626,0.4736602945796662,0.4747470899064501,0.5011301524038885,0.5088008352643438,0.5381472519757846,0.5803394960781212,0.6090738932979374,0.6094794576177023,0.6001247341844493,0.5587147372275991,0.5398445939769463,0.5121185419835221,0.5076515757870901,0.5173350370832202,0.5464740423506234,0.5844470400730044,0.6265470389813261,0.6226469936816201,0.5962722267107505,0.5694461293640183,0.5286398949464743,0.5077377690870906,0.5073682180148067,0.4848034291058863,0.4697025708184306,0.4415831886954438,0.4397050774296876,0.4397045018024493,0.4397045018024528,0.4397045018024573,0.4397045018024617,0.4376656223215907,0.4099134852366469,0.4033988851080553,0.3772256093595896,0.4013550734570952,0.4057479902525465,0.4057487090251897,0.4057501617987063,0.4122368514102108,0.43264599539482784,0.4068278160843519,0.4059436653065385,0.4259763196977149,0.4165610028364499,0.4134636376982366,0.4156661474673129,0.4057906198001389,0.4041172986929205,0.3717441705398139,0.3393296910008621,0.31403387553996875,0.2722166340762575,0.29452237769337497,0.32091849233758474,0.3377707208831007,0.3387323242816125,0.3658619308989959,0.4082203981447092,0.4390596601624068,0.44079898539696494,0.4671983705018024,0.4736574804022276,0.4727512145341244,0.4456289940480476,0.4298857198815096,0.3565017554754801,0.27232515320992606,0.2140391562368844,0.13323702495807502,0.052554174661270985,0.007374222977629684,0.0,0.033668745423327096,0.1020178230369808,0.1876521524391208,0.2627235317723544,0.3255211391955113,0.4110085279064721,0.4967635496655971,0.5825163101186392,0.6611072310607495,0.7205111417652583,0.8058278439248063,0.8911785268873063,0.924961225610442,0.8500088105847468,0.7919899314058672,0.7370815625606326,0.693502198154067,0.6506217820651639,0.6136380003094829,0.6094825976797278,0.6038869199017709,0.5769441490383054,0.5861085126112195,0.6092086458387405,0.6094834656890766,0.6094834656890793,0.6094834656890837,0.6094834656890873,0.6094583872139836,0.5939860473780598,0.5756384982396971,0.575528632290542,0.5789795724692715,0.6070698910382442,0.6242082786931196,0.6522730126807312,0.6814688654254519,0.7042923376133317,0.6766177506832659,0.646846491709991,0.6178139565533582,0.609494938286022,0.5966354674294072,0.5757995118695041,0.5765298972946624,0.6024888373102151,0.6094803591294324,0.6088628450736708,0.5819061187331576,0.5755291074114943,0.5755276729118659,0.575899459348765,0.5974364548868136,0.6093903981911222,0.5918295426852129,0.5761936590231196,0.5990384298015705,0.609478994679713,0.6094834656891859,0.6094834656891894,0.6094834656891939,0.6094834656891974,0.6094834656892011,0.6094834656892054,0.609483465689209,0.6094834656892125,0.6089589982171546,0.5820561980288046,0.5755291317767348,0.5755276729119334,0.5755276729119361,0.5755276729119396,0.575527672911945,0.5752061388475456,0.5510728975120358,0.5233963697952033,0.5056175432140321,0.4724419447867181,0.4412086358618099,0.4498351767110131,0.4733644838592088,0.4755312932054583,0.5045745715344951,0.5451899267344578,0.5752747053881171,0.5755276729119823,0.5755917685087528,0.5878862198182606,0.6092769687277526,0.6013289485245474,0.5557531863437859,0.4991694344361655,0.423932105738194,0.36210426626219583,0.2860696439623238,0.20046975631961492,0.13336222563892974,0.07646632259439823,0.06795519066605228,0.10199867789514716,0.1707162268145268,0.250481592856735,0.309118109818848,0.39396405153224734,0.4797190732913741,0.5654118875236751,0.639117027582544,0.7032384844223056,0.7887833675505833,0.8745374482048556,0.9569356848257468,1.0,0.9511164462851828,0.8929637314874661,0.8139812712395501,0.7610177331885709,0.7181611868565945,0.6809444030348617,0.6518823270764109,0.6430569794790141,0.6174377441142269,0.6094899744596161,0.5960200024108566,0.577732016636137,0.6024249592816693,0.5775706883892902,0.5604622712665899,0.541686009585054,0.5412952635838888,0.5181592336311533,0.5076608302373105,0.5076377013804949,0.5163164618070422,0.5312212405586996,0.5175250198332035,0.5571350376768329,0.585107323338331,0.6099140365769768,0.6344113542344125,0.6406993580855644,0.6125545995655806,0.5962666793766722,0.5757474980743851,0.5615097346770863,0.5437762238589051,0.5732876981404846,0.5958254947146191,0.5764811240677234,0.5755276729121128,0.5755276729121155,0.5755276729121199,0.5755276729121235,0.575527672912127,0.5755276729121297,0.575527672912135,0.5755276729121386,0.5755276729121412,0.5755276729121466,0.5755276729121501,0.5755290404075568,0.5814908788750763,0.6024249592817865,0.5767144157181772,0.5755277003229882,0.5755276729121706,0.5755276729121741,0.5755964886838054,0.5885023640164313,0.6092994280623536,0.6128594850006417,0.6363807520591109,0.6111995416164158,0.604656592759607,0.5771750690434381,No
19,0.4512418498254762,0.4512418498254753,0.4512047901913698,0.4404508581057014,0.4237334070138648,0.4236320917241017,0.4236320917241008,0.4236320917240999,0.4236320917240981,0.4238287221586976,0.4407081404320694,0.4300791132373192,0.4236349184681183,0.4236320917240919,0.4235571375867799,0.4118891457167413,0.3953487655788575,0.3706065864720641,0.3378900983110817,0.30938808602535683,0.26090675210529746,0.21927660613813327,0.20286206820016076,0.2116228660594288,0.2392772344460079,0.2765777111107868,0.30422398300814546,0.3157245308546006,0.3383966979624482,0.340828896744795,0.3502057651608519,0.3712211400315262,0.4127148510570704,0.42646072157242987,0.4615402200817185,0.507263599317656,0.5639429306657933,0.6277950123329852,0.7025653801906468,0.785104081547833,0.8491098711072951,0.9132745551526942,0.9458967283024028,0.9285292834286888,0.8728253777825392,0.7947918438640116,0.7119240441747978,0.6429833581304241,0.5731999597502222,0.4902203318509004,0.4071745104244329,0.3241409363759491,0.2471615982665991,0.1848272959486872,0.10501225270249126,0.09802129083002507,0.156095632196112,0.2366332960432533,0.2997837067541136,0.3750592577495677,0.4222966967585329,0.4443644791690993,0.4512265973531404,0.4512414596118548,0.4495233565023416,0.4259759538247323,0.3983038712029652,0.3731664854517725,0.3939308666984056,0.4220299279106365,0.4236911500947853,0.4362860354374512,0.4491631454054472,0.4319516933366403,0.44975439645233184,0.45124153028044395,0.4509711074215357,0.43543471200728057,0.4451371870621106,0.43926773052790136,0.4478781990658982,0.4319324852968967,0.4420611563731392,0.4241618220060621,0.4236341687663909,0.42875506401799607,0.45006458605477295,0.4651448715313089,0.4704919301238766,0.4517884580696725,0.4654027869264264,0.4764522101208852,0.4541284929181222,0.4512426855584186,0.4512418498254016,0.4512418498254007,0.4512418498253989,0.4509047920409026,0.4329147020914803,0.4212414851374042,0.3982081753326083,0.3771081524981952,0.3472916876091761,0.3036680871317543,0.2393141404692569,0.19584940943205265,0.16618090952907227,0.1478352846524409,0.15376841721922485,0.19621058365183772,0.23583141557773055,0.2730525551188201,0.29191824337689365,0.3284679574654197,0.3419464508554597,0.37118003267164656,0.3953679379945117,0.3972623720034685,0.4202260856691966,0.4468184878599573,0.4960421312807002,0.5387927546866154,0.6103406962492429,0.6932398182272594,0.7595289268795558,0.8317555872315436,0.897849059039598,0.9632435361405712,1.0,0.9791551414938988,0.925084962865184,0.8588983914158492,0.7764857672570091,0.7138010093145137,0.637469456137671,0.5550274088956835,0.5001029383045426,0.4431513234966431,0.3605086055549984,0.2775298435776703,0.20596150949405526,0.13888716719503869,0.056031301727967005,0.0,0.06080382612995727,0.12091616679883545,0.20134713736058266,0.2843922920441653,0.3671303207065515,0.4317480269317766,0.4763029725032215,0.4964560288092663,0.4847038039557194,0.4787428331327082,0.4661963930054638,0.450216632338198,0.4165170605464335,0.39610642825331777,0.3987597206061269,0.4308169520688541,0.4513374122768488,0.4703486098404062,0.4788302339660326,0.4788513867032815,0.477681934688702,0.4565419571055482,0.4512782898412713,0.4613879154539449,0.4731505335140653,0.45217279083675704,0.4512418498253519,0.4512418498253501,0.4512415732960422,0.4498938231562963,0.4319514045170676,0.4478375240583867,0.42848684227281897,0.4345829656805647,0.4509711074214602,0.4512418498253412,0.4512431525856293,0.4549698841026819,0.4776099055450809,0.4976969217201068,0.4769490384288914,0.4520062254879127,0.44477842149536695,0.4227607759988104,0.4000817445438507,0.3789098141691696,0.33833606341170785,0.3069226441119248,0.2688794442566156,0.22759920695518776,0.20344492470916187,0.2028114399995049,0.2159833330754424,0.25588401103459457,0.2974169610398869,0.3344025392037997,0.3535632677106948,0.3682766666662385,0.38134642769059024,0.4005328148020269,0.4222577893763591,0.43680367821188426,0.4559627912476243,0.4957475565488974,0.5469008882236208,0.6028736349610098,0.6795593847013723,0.7413046734093758,0.8179526896696291,0.8796748425579697,0.9414218266690328,0.9397019142500768,0.8927366439464137,0.8127663488471022,0.7297424892463189,0.6550899331354127,0.5908013452919958,0.508193743006955,0.4251479215804874,0.3421021001540199,0.2590562787275532,0.17603305555946225,0.1018187032425315,0.05469048848276081,0.0857405666756419,0.16410682536003576,0.24706083614534705,0.3149596737734166,0.3846089542209974,0.4441782817063791,0.4930202033718318,0.48728974150048204,0.4762639627630962,0.453353527353241,0.4512160812431061,0.43897960067927855,0.39824615478951664,0.39602546762137614,0.4036676232389542,0.44692625164787,0.4512386645065201,0.4512411247040039,0.4484368767485751,0.42530388143220943,0.4303265532366396,0.4478355699179,0.42516805289365855,0.4236321777552634,0.4236320917239231,0.42363209172392136,0.4236320917239205,No
20,0.8018381696006047,0.8018594861417041,0.8102963927694549,0.8191624169765381,0.8023250531488797,0.8018382166484894,0.8018381696006105,0.800888178532229,0.7824421013220793,0.7948256072423021,0.8021110498800064,0.8166183005290559,0.8054726068415174,0.8018415001426469,0.797153489365003,0.7816461211470318,0.7987490991489232,0.7830315319581267,0.7788939588408832,0.7788872405421317,0.778887240542133,0.7788872405421343,0.7788872405421357,0.778887240542137,0.7789008825786885,0.7852917009023375,0.8150185279490763,0.8247537417871396,0.8241630384901201,0.8035838492158791,0.7802325716148863,0.7788875099981859,0.7788872405421451,0.7788872405421463,0.7788497724980918,0.7693719306858409,0.7525349197589195,0.7049856479074053,0.6457961367557221,0.5909205744687918,0.5226468678773689,0.4545776739998351,0.40200140224987896,0.3401044189783313,0.27162736519817354,0.20556591472653366,0.1665961443727446,0.17107951631612472,0.21602595121248316,0.2828824142645585,0.3340059923508321,0.3977235730414579,0.4661365879334425,0.5246348320030599,0.5803171288731388,0.6487386740948935,0.7141008979314742,0.7637459328429044,0.8312693609815272,0.899762097228348,0.9677628614238852,1.0,0.9580329783993728,0.9039871918796818,0.8664578840322688,0.8220798095323336,0.7883160792127986,0.7651834147757293,0.7559084903780531,0.7424583707555379,0.7330389562294282,0.7277345383621205,0.6975816571452049,0.6871522650989745,0.6820567454941027,0.6521773039704293,0.6403968094185473,0.6172638095645082,0.5913783328271491,0.5610354199887007,0.5449637868819579,0.5273618125552826,0.5332850116359391,0.5507682280651673,0.5714954453973928,0.6008861718265974,0.6399152557054046,0.6755784994761629,0.7027818483230126,0.7439750997413546,0.7695373751785679,0.7788515820741835,0.7788872405421761,0.7788872405421774,0.7788875228294598,0.7802707564462481,0.7983655216052412,0.8017986419569794,0.7922239037386016,0.7790875803858337,0.7790438859963351,0.7905765008609369,0.7850792674404854,0.778900228216429,0.7761310423614578,0.7577694015454943,0.7674414255632764,0.7788322799295173,0.778887240542192,0.7788872405421934,0.7788872405421943,0.7788872405421952,0.7788872405421956,0.7788872405421969,0.7788921236333413,0.7825713604953819,0.8110993632143022,0.8176391815321176,0.8021333886901134,0.8016352195791887,0.7869036868108021,0.7789070555498046,0.7788872405422054,0.7788891205663524,0.7816018743700348,0.8008029551610503,0.8006005832090457,0.7601639730254033,0.6930843448616231,0.64387588569307,0.5779975621978677,0.5095063359459013,0.4410135633438994,0.3725207907418966,0.3040986617451211,0.2487153259661725,0.19601276603958293,0.18254797167146952,0.2078655328277197,0.2667139683715809,0.3200590193305466,0.38827100276159454,0.4548345544122774,0.5045478684313638,0.5707989988544746,0.6374597575986085,0.6872957032757121,0.7533268901588932,0.8218189784280927,0.8902972748082676,0.9520751506428522,0.9707914545201756,0.9290683809648002,0.8763581803268603,0.8490651918157757,0.8254194881238823,0.8065005364705065,0.7842756659378307,0.7788981297673554,0.7783165760157762,0.7616100964412921,0.7554087571230133,0.7400971295347714,0.7427887268150037,0.7301589425070847,0.7111349488395109,0.6904646813668007,0.6653432265058177,0.6448774546169012,0.6108906762945807,0.5792259592785536,0.5723441060044001,0.5724443269027321,0.5835175516452877,0.6103359621986231,0.6520588991685581,0.6938487680547127,0.7289695537157521,0.7518767446056258,0.773998384671569,0.7795760906894422,0.7968040284194147,0.8018362876855196,0.8018413009027898,0.8049123729166765,0.8172953975634291,0.8026494839018032,0.8179723962248469,0.8041651378649579,0.8018386999586564,0.8017474692702127,0.7876274629497311,0.7789152996501549,0.7788872405422479,0.7792111730876283,0.7955213503915988,0.8018296547737087,0.8017666212074839,0.7888640320916256,0.7950514443399297,0.8018248292375416,0.8018381696007455,0.8009466878107571,0.7845335890581144,0.7998033877443875,0.8018376820136277,0.8018381696007508,0.8018381696007517,0.8018365785269861,0.7974286256937946,0.7790869759259613,0.7603526304329411,0.7558904947537144,0.7446710613275673,0.739760934107597,0.7694512738207608,0.7788679898153528,0.7849561943328784,0.7869280163235723,0.7425305139657148,0.6792429020399755,0.6107615809908613,0.5457219396187734,0.49533415148059795,0.4282327615600776,0.3597402733838959,0.29124847595613845,0.2258415955058677,0.17565819346438705,0.10875272894165232,0.049701322682515585,0.014292108322093709,0.0,0.034624726572981324,0.10132129280006996,0.15218938826547654,0.2163660178038307,0.28485724210286634,0.3533500147048687,0.4218427873068705,0.490335559908873,0.5588282170297156,0.6265733830611029,0.6777684962812192,0.7413575432944799,0.8098447786286398,0.8750806673261136,0.9208208206846278,0.916415020105482,0.866615239367889,0.8319735575954409,0.8040301428636982,0.7873480834226401,0.7789085570833789,0.7788872405422804,No
21,0.9227471020047338,0.9227471020047338,0.9227471020047346,0.9227471020047364,0.9227471020047382,0.9227414197065319,0.9161912348426241,0.9004870619041476,0.9188017270672848,0.9044655506268012,0.9323066435502154,0.9242228118337988,0.922748931532576,0.9256827490090859,0.9401850755437708,0.92319969295772,0.9227471020047489,0.9227471020047496,0.9226437838086009,0.908864926089154,0.8993763095085896,0.9212858021237044,0.9341865157389178,0.9267212823069712,0.8781808658897858,0.8486199198533111,0.8222463209306747,0.817711501632866,0.8367848593756086,0.8598222498257542,0.9081400996622192,0.9226497429597584,0.9169781804782228,0.8694854735274093,0.8008060174377833,0.7398745624719849,0.6601616281948557,0.5804625756744701,0.5187596038455329,0.43792618803742295,0.3550596301194089,0.2784200525136833,0.2151454396709056,0.13281928252261466,0.05056395009134773,0.003457219341876261,0.024196399902223664,0.07665210394568868,0.15889155632870902,0.2417167621188763,0.3132124655311155,0.38124843185535706,0.4639992367023647,0.5468718213002948,0.6297444058982258,0.7125766609817159,0.7854135437936023,0.8521252814460798,0.934660907401872,0.9959411949542752,0.9973776104562672,0.9757709352013836,0.9535594993138156,0.9423665348210788,0.934136245374841,0.9311198065399706,0.9190931675700104,0.8980650731610602,0.8821237148841039,0.8509526354334032,0.8666434906603451,0.8462442289311989,0.8257565621896648,0.8067365930208954,0.7784929461473107,0.7427836352867869,0.7090850761497229,0.6632330095224841,0.6589222006849385,0.6589326541652554,0.6649135586706736,0.7012152384285004,0.7445562420125401,0.7968325152331692,0.8361981537998577,0.8670424756414734,0.8950811116416652,0.8963644439867222,0.8963644439867242,0.896729063224071,0.9137003491821618,0.9225755425665644,0.9068936278620576,0.9168668331556376,0.9220961534218556,0.9034902792333446,0.907362263649639,0.9000522297314691,0.9141677178641014,0.9004100629543919,0.9188382643009154,0.9000996564831585,0.91416685690983,0.8979348226741033,0.8964014297288436,0.9058598265032218,0.9208201612664926,0.8992248086700165,0.9095097036953784,0.9226515030198571,0.9179431913618911,0.9060124344690372,0.9224104512035264,0.9153299379429488,0.8770548647936804,0.8427781991603309,0.8192263102816719,0.8175594595735589,0.83663343906961,0.8774864604558772,0.9156440161588364,0.9223595247439222,0.9007777150799204,0.8480424530853998,0.7806424639526135,0.6992067959511612,0.6373524123192329,0.558664591827652,0.4761574791515351,0.4110527750554982,0.3364029256386356,0.2536546745560706,0.18413977199346387,0.1140782654601713,0.03843396306798885,0.0032557083101520945,0.0394607288351474,0.1149302428287795,0.17831028708672034,0.2603871936453341,0.34325977824326515,0.4261323628411948,0.5088983785676149,0.5792709430032064,0.6484689306575939,0.7312400432148509,0.814111379429086,0.8942607405041576,0.9546664845045444,1.0,0.9839663152656629,0.9649909095044036,0.9484964027029824,0.9230455799771082,0.9001066321518172,0.914165974431728,0.8965667778164477,0.8785647203960352,0.8700095998694772,0.8655953929715317,0.845043066759918,0.8363863415455857,0.793648177044294,0.7653823151850752,0.7315807807881898,0.7016505041335428,0.6738843390903622,0.6462281929980334,0.6326927930243507,0.6355870375410708,0.6690685945303754,0.7105490829698864,0.7561504957959562,0.7984212940147337,0.8470351695748999,0.8721002026957851,0.8943407763411981,0.8963645516060659,0.8974398250902444,0.9169482924654576,0.9032257057777776,0.9039665990755124,0.9165602022828016,0.9067381231456996,0.9225902452998608,0.9223169925885166,0.9043007924249816,0.9028964198676794,0.9171383744514028,0.9001020671551831,0.9191687984383908,0.8994657512309354,0.9008013937698154,0.9216190888537508,0.9219348072099588,0.902375933799271,0.8964141945757262,0.9057768766769962,0.922586380798066,0.9202767335997404,0.9001020671551938,0.9180926762837052,0.9093659337597648,0.8697278117651273,0.8444892427821182,0.8364871168998187,0.8186464554700663,0.8436510359420089,0.8849323432198544,0.9187977888346754,0.9226198502981058,0.9001385776790718,0.829495720124882,0.7655564968562771,0.692714665472149,0.6263052684464263,0.5437679791806342,0.4620566412449967,0.40013592454237296,0.32153051162374746,0.23868792462855914,0.16526440486455307,0.09895964085596408,0.022046531097702268,0.0,0.029568269100952893,0.10641167293816832,0.1674408912004437,0.2489029778022336,0.3317755624001664,0.4146481469980965,0.4971326532345137,0.5626274731656484,0.6368960993515795,0.7197558273717508,0.802627959968687,0.8839277767311398,0.9457828506675812,0.9977293322112281,0.9874667822142368,0.9688346798775304,0.9493320938526396,0.931330036432227,0.922777670959344,0.9227433138060857,0.9175944197045072,0.8961456443832745,0.8735809508040333,0.8622259228375837,0.8412425317986196,0.8158841878959056,0.7882787316882478,0.7519373184834084,0.7152464410501009,0.6890418251076813,No
22,0.9631275955185036,0.8942396435904949,0.840225104134277,0.7977383313170701,0.7684549079720502,0.7473944402676991,0.7246940916407422,0.7220301169203682,0.7136926347983539,0.6780159457031414,0.6601911783133567,0.6418476119152401,0.6234740772400795,0.5877918350321639,0.5411829637651729,0.5100258926359724,0.4892200228331345,0.4500842659665181,0.3719754229931893,0.29132807653298265,0.21068015937867732,0.1300325133828939,0.05085427976527024,0.008427819884744725,0.00021310786223383002,0.0,0.003345420878650973,0.014823703173567182,0.07104398298535619,0.15142648812746895,0.2320744052817738,0.31270746809984473,0.3860294653354743,0.4273195510937975,0.4768399134856325,0.4805806280859666,0.4609081032161808,0.4745114097834011,0.4927592416580233,0.529601906284038,0.5793985834963079,0.6141374957817791,0.6553834769897287,0.67063783102456,0.6922629238915641,0.6815485404906494,0.6686954790945809,0.6685589712066924,0.6685589712066995,0.6684768032733657,0.6540409439643864,0.6422710700089387,0.6600517660922649,0.6674212203087024,0.6457764528056154,0.6406652814552962,0.6214251972904186,0.638777739247693,0.6212738005705893,0.6401417399081715,0.6405659967238928,0.6210473676221215,0.6403979093989807,0.6405093659204408,0.6209339808855696,0.6390768202622836,0.6210871812207421,0.6439066568232081,0.6673366150235691,0.6683448796600948,0.6493478302600768,0.6176845118413534,0.6069498102638051,0.5895051381997399,0.6133430961439781,0.6384030198417476,0.6184010173540417,0.6362126796636507,0.6417862056342174,0.6295515877529021,0.5692368867920474,0.5057208898789356,0.4350456266196052,0.3814723594363856,0.3499203168241194,0.36245333610413377,0.4019174705794222,0.4479980445422425,0.5238233140201021,0.5986330486961058,0.6591918933293006,0.7390337841981371,0.8181396094580493,0.8775370463549019,0.91492227281531,0.8596460151474825,0.8130510421457013,0.7777757630072606,0.733893484659037,0.6839776122745804,0.6479428819321682,0.6291996709122745,0.6028096534772058,0.6039343125903183,0.5929473773095588,0.567017378645192,0.5606833313170356,0.5399621370163143,0.5211421604377917,0.49437650903856895,0.4675481695020207,0.4493342629165125,0.42921442681082,0.4457113378269146,0.4636457035823765,0.499171775593688,0.5173764311045539,0.5554918959555715,0.5888057537394578,0.6223514991281953,0.6353948273254209,0.6157328178502834,0.6177811917016016,0.6389246915711477,0.6211038907283712,0.6403338670265746,0.6422355618984708,0.6616697166981846,0.6504973300610389,0.62105041720196,0.6333655395455451,0.6262727704863997,0.6341691744302147,0.6154651928586836,0.6187762223028392,0.6406553626275078,0.6418161638282807,0.6415219935012542,0.6248634472725931,0.6360857229710528,0.6418137675436975,0.6427849453619356,0.6604622920417786,0.6440944411343996,0.6429027742788551,0.6634608306427467,0.6816620600903911,0.695227772867288,0.6921501933154013,0.6604146025311555,0.6317926966243301,0.6153497800337839,0.6152583728223298,0.6306863165729468,0.6640303499014375,0.6685571676877989,0.6685589712072777,0.6678332957422151,0.6322138413130722,0.5535136765082904,0.4770111151727376,0.4223594618136439,0.3892246341932713,0.3818642141537407,0.4182619397938825,0.4604847409546564,0.5298536861002554,0.6101809330516734,0.6746323587426724,0.7450498452226628,0.8256398715208237,0.8983711714443374,0.9571342702669328,0.9470467433545848,0.873482492840012,0.8186260152276055,0.76484545008887,0.7121169798212637,0.679751359934317,0.6450750085521366,0.6192081860613254,0.6091310511204342,0.5890961040727727,0.5871651106145346,0.5652591294344425,0.5552045833818435,0.5195380576827868,0.4921788299033065,0.474857350190693,0.4551101567718674,0.4546173161930267,0.4575480241840375,0.4831527081955751,0.5178875136636331,0.5583059550104035,0.5985329791345637,0.6354478075145322,0.6529660494442413,0.6684656383635992,0.6685589712074562,0.6685589712074651,0.668558454114478,0.6662809964880396,0.6442423145281997,0.6419284347221725,0.6541940859302131,0.6680848591757607,0.6512095335000692,0.6632768269591547,0.6685566758191093,0.6685589712075344,0.6685589712075415,0.6685578991854881,0.6653370825119178,0.6451438247336001,0.6638566312746171,0.6685570289558389,0.6685589712075841,0.6685589712075921,0.6685593274972859,0.6701193596507387,0.6872193962049367,0.6766696954771603,0.6821617718261073,0.6476919225675677,0.6213065714205013,0.6029047049588621,0.5903815438235607,0.6186506312248095,0.6431384741827499,0.6651436711821259,0.6685577856773892,0.6684878809348569,0.6494582357149894,0.5889334926048968,0.5214803417980334,0.4419471381349971,0.3885160595052919,0.37484380023780295,0.39462435169847376,0.4519239028902047,0.5102586111030267,0.5884360534267477,0.668729185453135,0.7313807983959628,0.8036540511520074,0.8817124670750567,0.9401160430332278,0.9999999999999996,0.9667753526356502,0.8898326271477184,0.8252002775871872,0.7725722714721326,0.7316714623538867,0.6983223485339374,No
23,0.1592591383922688,0.14115414491894107,0.10327952468736434,0.09860459956054868,0.05195309542355275,0.04550722902833471,0.036206576509622224,0.0,0.043406540318200015,0.04693456189038159,0.09172541071517236,0.15255777097289425,0.17745466569108534,0.215722784098773,0.21940967028550065,0.2613370807940996,0.2199512346547614,0.21614154546533906,0.2050966218936825,0.16289012430641134,0.20548827494267385,0.19075717862578934,0.1594491373487692,0.15883728116283002,0.12092442795992753,0.1378052566782113,0.15925793540423785,0.159260341380552,0.14458212883550736,0.10382624800292284,0.12629954794786258,0.1590240880775884,0.15926617405042087,0.1592661740504262,0.15909306293842818,0.12879434050661231,0.11003331980578324,0.17194954037599608,0.242427524132502,0.2728620456030768,0.27279019678972993,0.24036866970391024,0.2162759689522442,0.2190817504302558,0.2749679479775686,0.3280489668965654,0.3593378893663797,0.3518551831541661,0.3080613489629478,0.2734376587842853,0.25034098655176074,0.21576819866065836,0.17289156139902673,0.2049815550905976,0.24877814590842995,0.2730143650874588,0.2669154280575299,0.2074645249277811,0.16090275988451985,0.14649766353447544,0.07762223538479418,0.05112091346690839,0.13547216763699765,0.2350627415817179,0.36380853673933794,0.4641446314298445,0.6064892351157738,0.7487015684015415,0.8545800014407519,0.9431305523899683,0.8761429221101302,0.783748355018254,0.7207730562631607,0.6557677820114858,0.5838111750927997,0.5388100501457078,0.4692443769211643,0.44355471930926704,0.4107971433847872,0.3866505895667576,0.3531912518540654,0.3255229156928383,0.27832935022999195,0.251588929644031,0.21663099507271968,0.21614491747787667,0.21632712811235064,0.24753208020699624,0.26240415333015576,0.21976997958664235,0.2652758171035909,0.3241157100657741,0.3336522210248116,0.3932505517171965,0.4471469556310712,0.5077265069043175,0.5567298294257927,0.5574173780414124,0.5574392712580778,0.5707019697113367,0.5992763978751388,0.5582856166007915,0.5151295799886686,0.454794784327575,0.4913321511349711,0.4711010637562314,0.44381350059195945,0.4431189141505918,0.40239530264268986,0.3868308895419208,0.386781147759736,0.3861999353878876,0.3446960421896996,0.3463019319474512,0.3668129584268112,0.3336889959607685,0.4094115202845785,0.4858473076470808,0.5006074180906026,0.5182254034672429,0.5566659285101974,0.5221654293280267,0.5006510973291398,0.5037906994075403,0.5528327453790762,0.6026242917890308,0.614387000252492,0.6337414718720886,0.6704234153647306,0.6322796103833745,0.567879918028499,0.5191068906071958,0.50062375160139,0.4989562937384235,0.4535531149951933,0.4298089411512702,0.3883154479455264,0.4097523545243256,0.4147202173761535,0.34687252378264155,0.3299601401552881,0.313717821719532,0.2445286352149463,0.22419313686822664,0.3237507795777308,0.42063258263739206,0.5525333346853856,0.6494294453829905,0.7842651585893137,0.9260057190868078,1.0,0.8952993745028248,0.7999154955239565,0.7097862795859395,0.6371273081676776,0.5494091696888201,0.4564479175865106,0.38898999907286397,0.3765970638575151,0.331579865186729,0.29371566027726104,0.2676262173675585,0.22325490382184301,0.2613382564422277,0.21954923844751306,0.21624845758842426,0.23652484449830524,0.26634045908507353,0.2179887266616518,0.1628564917293751,0.10554705285261434,0.11549024661732332,0.1586105123196475,0.16150319767052146,0.2066811580443844,0.21846758568625368,0.2638750678252553,0.2874431711293575,0.3359396498778171,0.3825859882562046,0.3457049786675537,0.3299544041067666,0.3299024043327812,0.3299024043327865,0.3299024043327936,0.3299024043327989,0.3299641887379323,0.3465214629588118,0.3860296982287377,0.35329513015503444,0.3297500864411909,0.29569128005875633,0.2828529931622814,0.3281916158023961,0.3075261910438787,0.23794760646746305,0.24754084370741405,0.2731723521807776,0.3051316819594927,0.3491414176091734,0.3864068599707196,0.38676035613242377,0.3618143811247237,0.3342089466090101,0.38151798693577454,0.3872037852816312,0.4218188358180992,0.4656938146402378,0.5002391306431146,0.4841464013898715,0.3694754880184181,0.33594700038202063,0.3750945676494393,0.3327484526566877,0.3299031151895697,0.3299024043329393,0.3298956967626285,0.31272527990610577,0.2740229843524684,0.2551193883753804,0.21648404915283412,0.1701390631003754,0.07691455103236322,0.07356708110654964,0.12204715958926825,0.2458446982943663,0.3477651006289726,0.4469178036925143,0.5622447781871376,0.6736889995604525,0.7163577323954301,0.6458473084639209,0.5518208407659291,0.4791608051282168,0.4066341927571777,0.3360564989911694,0.26561713836303724,0.2295208516740157,0.2722987509072059,0.273023660905773,0.2717613913297328,0.22654613419450345,0.2161470591619974,0.21570165482833306,0.17519335503741118,0.11198468892079916,0.10238944471787192,0.10238141568329873,0.08718436756210401,0.0491326374528942,0.09336386947655127,0.10485006798953124,0.1505659583116774,0.17437536172392853,0.21557868866238827,No
