,0,1,2,3,4,5,6,7,8,9,10,11,12,13,14,15,16,17,18,19,20,21,22,23,24,25,26,27,28,29,30,31,32,33,34,35,36,37,38,39,40,41,42,43,44,45,46,47,48,49,50,51,52,53,54,55,56,57,58,59,60,61,62,63,64,65,66,67,68,69,70,71,72,73,74,75,76,77,78,79,80,81,82,83,84,85,86,87,88,89,90,91,92,93,94,95,96,97,98,99,100,101,102,103,104,105,106,107,108,109,110,111,112,113,114,115,116,117,118,119,120,121,122,123,124,125,126,127,128,129,130,131,132,133,134,135,136,137,138,139,140,141,142,143,144,145,146,147,148,149,150,151,152,153,154,155,156,157,158,159,160,161,162,163,164,165,166,167,168,169,170,171,172,173,174,175,176,177,178,179,180,181,182,183,184,185,186,187,188,189,190,191,192,193,194,195,196,197,198,199,200,201,202,203,204,205,206,207,208,209,210,211,212,213,214,215,216,217,218,219,220,221,222,223,224,225,226,227,228,229,230,231,232,233,234,235,236,237,238,239,240,241,242,243,244,245,246,247,248,249,250,251,252,253,254,255,256,257,258,259,260,261,262,263,264,265,266,267,268,269,270,271,272,273,274,275,276,277,278,279,280,281,282,283,284,285,286,287,288,289,290,291,292,293,294,295,296,297,298,299,300,301,302,303,304,305,306,307,308,309,310,311,312,313,314,315,316,317,318,319,320,321,322,323,324,325,326,327,328,329,330,331,332,333,334,335,336,337,338,339,340,341,342,343,344,345,346,347,348,349,350,351,352,353,354,355,356,357,358,359,360,361,362,363,364,365,366,367,368,369,370,371,372,373,374,375,376,377,378,379,380,381,382,383,384,385,386,387,388,389,390,391,392,393,394,395,396,397,398,399,target
0,-0.45725981254945647,0.4334022501851705,-0.951313291023885,-0.11876722554178915,0.3720337510477395,1.9173410144427667,0.5032481082462796,-0.996278482494999,-2.3067440967136053,-1.2948904239035608,-1.0298844198801882,-3.299730532241314,-2.371332899785478,-1.6356850348391887,-0.6007561107779714,0.2591342447510673,0.39221092696254045,-0.43215237914882715,0.8061669050354261,-2.245052871761556,-0.9361256319027089,0.06766331752698751,-1.8562545070566923,0.49922461084176734,0.15013092695171498,-1.0268373669209234,-0.1840958627196219,1.0705051688124179,-0.208371206782406,-1.0361571998743577,0.9173083577761053,0.0003300349028378782,-0.37988230604991163,-2.7388667631046086,-0.15068392934053423,0.5997700406007104,0.3551429755188071,1.0941105865404814,-2.0489852956479435,-0.48550018687408836,0.6798353949546496,0.4529857385912154,-2.4340925569106093,0.38398001485702704,1.9383601156963062,-0.6920536394839091,-0.9183816985952099,2.198138737629776,-0.44307591543883373,-0.11844044411981222,-1.6889786369621171,0.05106142880113721,-0.2643654220249845,-1.1604276988797808,-1.2170345012728725,-0.7100069963299049,-0.486127119395636,0.2879073321423319,-0.32643298510685076,0.9971212321001188,0.5474998339229783,0.022127219543002723,0.8063183141122506,-1.3034148682601707,-0.06363454305035926,0.8032463766858828,0.9411629014039958,-0.3553931799502482,-1.3838227113759107,0.4129325916288153,0.307957552211467,-1.3558163375547603,-0.2720371827222984,2.066171130673383,-0.392002164389212,-0.21262894000119165,-1.0046437571882563,0.9206232725921474,-1.0877568915056817,-0.16496552435665732,-1.5299408812076187,0.18812156015968312,0.8094003097234616,-0.48203088308700776,-0.025451910435549015,-0.7637680246670618,0.27458074197543386,1.3569791223942118,0.5362573109305325,0.1915487267132166,-0.10812855198345699,1.1692307907190258,-0.30289996829332555,-0.021624628132008203,0.3406080794036271,0.5576139766157918,-0.5886615651371084,0.9319324203355164,-0.9770676892936574,-0.7356348891520115,0.6393829521767641,-0.3148771248243285,-0.5146493987403304,0.02588870036679435,0.23823695217686996,-0.4338777448677992,0.13424131987192162,-0.5215255917370784,-0.6133217883226869,-0.05836360723252826,-0.19324036416814497,-0.4336860329314694,0.9492400308664971,0.9409673818758906,0.5677465895891591,-0.8466740739395434,0.4769774514019845,0.28715380798124435,0.30060400649987573,0.95877039403688,0.9271893091087667,0.3303353106211467,0.15073215305119897,0.725862641265484,0.4576593869229723,0.5515098796494048,0.11668485728618036,-0.31737682961253594,-0.19785906164010422,-0.5050701720980294,-0.39436243787561653,0.32423325108900175,0.23081606417915126,-0.2079895917598516,0.49302364851277736,0.8256497944310575,-0.7238880480925558,-0.9326829684168129,-0.1018800326608893,0.5581586930638843,-0.5294296021964513,-0.2042210430874411,0.31998359427651096,-0.30385694538948194,-0.0860559814808223,-0.41842007474878756,-0.47112353151705205,0.3037387384800543,0.11552856392258627,-0.45316676853146837,0.40643978757056276,-0.24992510726725556,0.002586886677115533,-0.33356229575741553,0.06094351245775895,0.20063255835965907,0.17360713120710702,0.3783511858926003,0.11879515655503657,0.6572666426716489,0.242011492236354,0.12693097660139005,0.21632927722742673,0.514943934941858,0.22965108356106215,0.35581355349328087,-0.36206150382127883,-0.14014595250588727,-0.3193573799510813,0.08636111949092434,-0.11047905840398439,0.03674295810127455,0.45014337746875116,-0.13767711582525383,-0.335501469662629,-0.37773298298816677,0.6783995580337591,0.16587568449299844,-0.5786892588524774,-0.5398000842309786,0.1700823935646637,-0.21349930398606193,0.6056088716437487,0.29707974217027266,-0.2091366104870587,0.5149929915858477,0.9278435844572446,-0.09601714347350397,0.4000060717301718,-0.3774533130993351,0.07809313111244533,0.4224576747194945,-0.03376222694250255,-0.00801365081676321,-0.11098145503742561,-0.47875064189566396,-0.12750385784666315,-0.2852338956842416,-0.23593233169044073,-0.684782303724905,0.20923361064483043,-0.6114684255188138,-0.7143094780944161,-0.0708401101166114,-0.3314396297487528,0.15130002085897643,-0.3945628712446817,0.1603358556399015,0.3965098121487544,-0.09827094264507089,-0.2346457766401788,0.47053364856536056,-0.028138910345483072,-0.24170214296925635,-0.35508159578810833,0.17982381949639561,-0.01888596205388326,0.7854344412838469,-0.0702689864536179,0.47481705294417387,0.02756890961390156,-0.23655746367801886,0.25505518821693407,0.21870249401771372,0.6811345780316543,-0.5336710604574004,0.09518895725964596,-0.0952519686880568,0.14587385082595491,-0.9114174211984682,-0.06269453684574058,0.3157387776749393,0.11610958560867833,-0.07271395968076126,0.2845410766192744,0.4371090305747179,-0.30811179617214834,0.217173211169769,0.41351048896973625,-0.2795725355892179,0.37534469050722435,0.08629658679229206,-0.3067664837693735,0.034891647972839585,0.05616862112282665,-0.19162364165215895,0.34405910640010295,0.012251620112898778,-0.4453087419410643,0.22784161249402832,-0.19084654199344292,-0.16300219647323905,0.04844171254983958,0.4846539214232494,-0.15355219801213615,0.07165979116138552,0.13470477296296487,-0.16485933395366711,0.08054670406425536,-0.1865072443562714,-0.2723354689073573,-0.06155066025361813,0.1698282011555435,-0.3197324341523672,0.05324625708109224,0.05380170645490776,-0.21316524473356843,-0.5285507755783435,-0.01179588169506566,-0.14892533272317446,0.14791830920348667,0.32887801591363947,0.12962623235276416,0.1618072030663347,0.3703114191615344,-0.11439612878333413,-0.07108632608744968,-0.21635392688478067,0.14631476216801928,-0.11484222400966741,0.16275616382694436,0.30205904431966735,-0.030971705332374925,-0.010521445912097988,-0.21854719595889252,0.11839283151108262,-0.05688564074923638,-0.08859607732007227,0.23494764422059217,-0.33464559199722016,0.17786243565784562,-0.5361767972189763,-0.05164087454664871,0.09118256665888472,-0.014918259345842445,0.020694624109836985,0.013884438402437861,-0.19862553749829706,0.018841071739124953,-0.5406437683300853,-0.11016587675425378,-0.4336767740365015,0.24148551664749826,-0.19235983196711712,-0.013089501134353365,0.31057440305728745,0.17140207277011799,-0.036491804376816796,-0.17245854082718334,-0.10841865898909937,0.3356823983125742,0.12498929699203666,0.18941834742985947,0.10680490900044419,0.13301623708950527,0.1952211259348586,0.057502159195226686,0.20390044398974583,0.20119170776063497,-0.09964568398441064,-0.22484519149004648,0.14846009025291348,-0.050009631865431586,0.08395651958677726,0.1228220220900095,0.16210341584929744,-0.023863524964263486,0.17231276722112637,-0.044342456788791125,0.13362675106945623,-0.28127345866576087,-0.12328424588420386,0.05538567494013713,-0.14261821086831336,-0.005642484710623237,0.18364483637656911,-0.19074028571643456,0.13170422291202877,-0.03373433828114056,-0.16666883457745413,-0.06884919795506012,0.2501890288715655,-0.27176223393751026,0.1904928213901627,0.18323391136703196,-0.14736329325286715,-0.05269306507164094,-0.035183208162050554,0.047583173518272626,-0.01654111202438508,0.02719295567680441,-0.00034349864493010755,0.06394469900418415,0.21797477185156156,-0.052204289735955735,-0.24062318169756297,-0.10842357154068817,-0.06764786373337095,0.0911357068630992,0.10483814288503476,0.14632652212308905,-0.004864379736916187,-0.07081602558956768,-0.16178148103581652,-0.05217542263934303,-0.031128897153325896,-0.053440647416399034,-0.03563536442866685,0.15351619346641096,-0.13473949357871126,0.09961926040346743,0.13158926691473438,-0.08291659680674762,-0.197682048609157,-0.03885451476251721,-0.1952254270767531,0.1610453723738841,0.02102194879066087,-0.09086960125228227,-0.02310079702135119,-0.16546067854595822,-0.02531628393983659,0.03831836648763098,-0.10636354605328795,-0.15400563559565636,0.021192312444672453,-0.1314881822825459,0.14252532166630508,0.05145348624873036,-0.018591225235373248,-0.004467489244951653,0.04919318718741425,0.10348177409616909,0.06318570108817248,0.08841674885290336,0.0063828458358263455,-0.031051463572697613,-0.01987693429342548,-0.09893437355058418,-0.1413877223932518,2
1,-1.4828711275721023,-3.9238331819541723,1.0016718019571056,1.1517861059390526,-0.10563354226589441,0.9354461762801848,0.06153848250697753,1.3404588371067832,-4.6336099944690465,-0.48350157375291447,-1.8647589895780843,-0.261639928894203,0.3169982149012133,1.5348672702794637,-0.11966958739235238,-1.3976510146769665,4.349664319071325,-1.6877759736178508,2.0180240504752907,-0.3119569116247658,2.426069887848823,0.611089144239587,-1.7775966150804754,-0.3491248047130003,0.3468886565429202,0.22657673527632044,-0.7761293300182422,0.3230265445970172,-0.16000759642045329,1.4922107352865301,0.15392600462930098,0.15945720414827236,-1.2101185734108992,-0.0861793941439382,-0.769436192526518,1.267969006788131,-0.5646593448379434,-0.3414184045505363,-1.9852300658454018,-1.5584389015499946,0.3919688797642514,1.2591452311918363,-0.07766388959131681,0.7809117365364578,1.638766704121262,-0.692444477639695,-1.4934462812671854,0.6987696438782628,0.2719969764402137,-0.22211401403530415,0.5339585850171532,-0.7264997850283027,1.9346813179909537,0.45836350593750036,0.30584317011606627,-1.4176651662317163,-0.5696930438981802,1.29899002269664,0.8582860356816279,0.730203793747174,-0.5078869452624326,1.5803484082936876,-0.6522664146573641,-0.22136420428007503,-0.270075735222889,0.9384293180447109,-0.28315465879808127,-0.14452172539539088,-1.6337782480748302,0.3638197090907943,-0.5286156262696584,-0.6437450791484848,-1.2598937070474043,-0.464994357980156,-0.37768956211809435,-1.0707843841078348,-1.7318749053385056,-1.3731529410617325,0.6988329077984731,2.3649504821231107,-0.7205734054098782,0.010649354077187088,0.7829072946448262,-0.2557317886938146,-0.9371154058810696,0.20070190559701334,-0.24568306267572435,0.5661317464394603,0.8046346956781791,-0.45417037110289027,0.3528748833363613,0.1649538537756118,0.5196483998805562,-0.47132444381629673,1.1792374286498806,-0.4474772028566588,0.6336930350332913,1.5379694474266115,0.6784495333425897,-0.4223123119419164,-0.8718094844742801,0.44050217745230613,0.6718132927513544,-0.3205468107277204,-0.5022975386760437,-0.34035315463861027,-0.04468543072230678,0.20320005519220224,0.016358757020932875,-0.4750813935499823,-0.2936074832966562,0.630192093460599,0.0083041223897194,0.11053978446407227,0.6425219430394558,0.120575106490478,0.00570452091645253,-0.04843528393123213,-0.09109246601801749,0.7638358091985398,-0.2565986523761418,-0.23014498640279804,0.7300645551179787,-0.5675274302565276,0.4591585554811388,0.3849324875195002,-0.6367507743727568,-0.14365963670640364,-0.1675228317532231,-0.15349733371906438,-0.20354020754545332,0.4193150330884325,-0.517306316945877,1.1961549551308652,-0.3529289244857898,0.1684005234037286,0.4369742558124049,-0.2471666727415023,-0.3948701610398445,0.12404489356640402,-0.028767161471674466,0.07776174886451168,-0.8223828981103488,-0.545843254124006,0.3299292892846558,0.8422056185552914,0.48821277702876936,0.07971234683091782,0.21324863328507793,0.0791540997099558,0.4529269999433317,0.08715460447465648,-0.478476167215948,0.7616484480242742,-0.21815682192757618,-0.4516007743537942,-0.3103226226795236,0.030565594544327918,0.0774527283046517,0.1818561786188008,0.25528312179188195,0.4241150001828737,-0.43170527297889416,0.7426974863266003,0.2742551963965984,-0.7474879070121015,0.6262331973851378,-0.6162314904115773,-0.18600037095295188,-0.4498306109301397,-0.20109006752450798,0.15974271993257133,-0.07431582621066647,0.20868562733837387,-0.0053959444812232684,0.15856452403534788,-0.5175564113172263,-0.5913939390290406,-0.0381392232853129,0.014993927125392572,0.1566742992332226,-0.19538915601091397,-0.16227747967451686,-0.0623058899821562,-0.47063452389766086,0.01522332776766105,-0.38380814832890164,-0.46479655382834306,0.602753824257052,-0.07057405357947245,-0.6407617652174915,-0.2291185249473235,0.15854696693455103,-0.06265629370125836,0.01985816197356818,0.08945650750850367,-0.33948032291384067,-0.3099906305131004,0.19218670367575988,-0.22815939855446926,-0.6270964244065127,0.1339261542924407,0.0943026181988769,-0.23489086334918885,-0.07343766451998289,-0.09507191695266624,0.01056024965834805,0.01938614726710316,-0.2709629618178968,0.2809269376547331,0.0020376900331280446,-0.37043725379570547,-0.11530600646839975,0.0036253988474636125,-0.2282606921597002,0.13392940457118957,0.54535021560569,0.37635973066893036,0.02173167925069735,-0.030591394777455365,0.3030200351177486,-0.0016989199926536521,0.2604015995496546,0.27838626347718254,-0.10944717503560403,-0.10933181631088763,0.000846333079279051,-0.022647976257653718,0.2984918795118889,0.27987689301630536,-0.09372797914456689,-0.061995979120105446,-0.2960852762960397,0.6125631929782824,0.21789401480219114,0.3546895483911568,0.24280060364927078,0.108610601242593,0.026448324218005068,-0.2480861984755494,0.4271367906059956,0.2379865006917057,0.4349883676549083,0.2106821169849261,-0.48635642388954764,0.36598560207028324,0.07983565611015708,0.1007152773517688,0.41291419281532366,0.5102494805572165,0.1469478021378996,0.20552676503775463,0.0027804972602014926,-0.2223879234399178,-0.07072389966807009,0.11264810306532141,-0.07112513280205975,-0.03503829004434872,-0.09324428019266481,-0.04409010046993724,0.11338200413273176,-0.04464969855713717,-0.19259224890066126,-0.009788596409037276,-0.05266831732328387,-0.028793877541444628,0.17982324567630778,0.16440664410963063,-0.168572296869093,0.05508223802232229,-0.46083036939563765,0.10587332736604638,0.16272630855417639,0.031115602575438377,-0.13619175006883066,0.0014089416784175334,0.2799875774384817,0.03798894445292332,-0.022511002487317196,-0.2024542744198616,-0.036936562931877026,0.22266501493029572,-0.03943629182076707,0.0899288592527099,-0.1915924909575496,-0.3787962653273837,0.07686127705629521,-0.14606861259552803,-0.220349570734601,0.07033459976394556,-0.26399759953908736,0.13922822874961685,0.21868578636637884,-0.18023237227966504,-0.19605115673678813,0.13643849224008148,-0.06056077981673521,-0.04915939873806869,0.3738478856875081,0.16110929437257712,-0.05835080668242904,0.38358333459113514,0.19259017481241836,-0.3091823848922972,-0.00695365144865268,0.006810271937039011,0.1008676269136743,-0.0204559892198174,-0.2083928397387393,0.13866939356444236,0.0348237024920039,-0.05996916563603249,-0.19623312509972884,-0.1712544944331012,-0.12935714322672995,0.04134369971050084,-0.07525799116213755,0.14998257200562856,0.05573537234276204,0.1470556455454809,-0.0829004198343762,-0.050013588313661435,-0.07174783311375141,-0.009487816607424,0.09916869485990769,-0.19400878408846406,0.012004595162147367,0.04314797303514578,-0.1534244805055165,-0.03569025777835396,0.12021639535024273,0.05598471969254764,-0.02375530005442008,-0.03773339191687728,-0.016085878144179343,0.06707100154868328,-0.15381973638284174,-0.07606457646188362,-0.15022576561219358,-0.07989629022236656,0.018888883166500024,-0.15346791439232849,-0.09417556649757944,0.01456631217113847,0.029205495649502353,-0.07497946521187918,-0.007382922966171187,0.18195833068996073,-0.11545387553870323,0.015387544765463067,0.09759139661298187,-0.1287057958336403,-0.13846395159420347,-0.17547233997747372,0.0024687683002709497,0.055018666472592855,0.05794552192969513,-0.09847545632209279,0.12836015731849781,0.08763948318592582,0.02708558019429023,-0.05373395454018912,0.10317682420983695,-0.18891325260916186,-0.2490933059000685,0.09858346301031075,0.006058255114236994,-0.0742786884203967,-0.06321487935415677,0.04386314632173292,-0.06257038037413531,0.13621850466185506,-0.11458066380345786,0.14869090649303485,0.10380717583193197,-0.023357528604795418,-0.12444985699609226,-0.39679932851406746,0.03045719465521231,0.14452120190379886,0.0672390874189043,-0.31319983967056114,-0.29561042974703,0.02246354160619669,0.00346077348250506,-0.1672602508523332,-0.09434759590232418,0.059299596719402416,-0.15275121440488434,-0.13997133240453355,0.2151880096146878,-0.17237445045263958,0.09512960205280263,-0.04417906500065488,0.05628114249565056,-0.11116160824684128,-0.021411843423003,-0.08785027343270378,-0.02760333826840785,0.038080481430635554,2
2,6.5248488437084,-0.06438023190854736,-2.1778303103401733,-0.7446319556427706,-3.1600533202875236,-2.079289451540795,1.99137258086793,2.6294581005809166,1.251709551833334,1.656290725303953,-1.7216000729938223,1.191401389660231,-0.05935848280264844,0.01666600369941287,-0.5899769608994093,0.27738090298739293,-1.1641495794195795,0.21959616858320258,-1.0118408767137008,2.0897005259990293,-1.2095113940987712,-0.2531653547645229,0.06859060145952818,-0.04145849938202918,1.7922832538773854,-0.7353102536225258,-0.2678263927752066,0.4955060207745467,0.7287213104676314,-1.3378332954314671,-1.3389470791966538,-1.756841360892116,-0.39680764641828536,1.4029928499257818,0.7426164944474418,2.0669930659083735,1.7373001695355421,1.6387684099552406,0.5075653535156787,0.7039378885568337,2.954793706476023,-0.7158215171890353,-1.8485663547198246,-0.4526367320046495,-1.093783672165349,1.5265284553026182,-0.12512296018824073,-0.9332414396084322,-0.21355674269793906,0.14172468850357867,0.45850741830409436,1.3794834043641988,0.5430227864029876,0.4904556771825392,-1.1126397634496523,0.7515893360063879,-0.09494909623647728,-1.8867403775014655,-0.30184327706526387,1.6571532405314464,1.5446271261999256,1.0776016688610524,1.6848925378270805,-0.12576552593960003,-0.8361282882219616,1.247178487656524,0.15696508095710915,0.4730527688118678,0.1791796980368152,-0.06653393105692461,1.0292601422936185,1.3460644386823033,0.2119834991789038,-1.6365962764834046,-0.35172107560880383,-0.1647128257123283,-0.5190590995574256,0.17760534682547707,1.0635925255382268,-0.4679714801817943,0.06536006044162894,-0.6212381842066478,0.2689015808742203,0.13906692395300438,0.16668018266723889,-0.8262887331667006,-0.2787678098088499,-1.058005247867517,-0.3062896817021936,-0.09938616256742933,0.061680086124610234,-0.22298696929634268,0.4744127503069541,-0.31154198453612625,-0.1680864599928174,0.46197710388846686,0.5339429700142965,-0.9273625036651657,-0.47374076752102995,0.0037604859934362764,-0.29308978108819456,1.0281650970933192,-0.0466821130550138,0.7438164611665045,-0.4037516957063671,0.040240167268775905,0.6079239017026712,1.0349752353338384,-0.65264829804322,-0.45956806409968,0.4766455333197859,0.12081722324530417,-0.43564808489435436,0.3341008519402642,0.31390579976048777,-1.0032689655985578,-0.5975510430405974,-1.9942782574637155,0.10404726674861935,0.315137613208756,-0.11256277598647091,0.5010478537532627,-0.4824441070475597,-0.3616803592755758,0.5238698373735291,1.1196640144271015,-0.8739936536668043,0.6216243400816022,0.3682359887672719,1.2279457512239402,0.420800789820576,0.6415492920507229,0.7168630784472844,-0.6829620076289755,0.16340117908750962,1.0994615847800062,0.13970164021632364,0.6354112603997961,0.08013688414513297,-0.28110456098693903,-0.41331396918957886,0.1339862792583382,-0.4136526651510184,-0.7001194363104408,-0.3240189450064496,-0.23643360769478186,0.3460157431386843,0.7030941421795852,0.04238187871659528,1.2345203365990354,-0.33513078000016444,-0.42553228169581714,0.07702425993392208,-0.18982339942353718,0.10340788632068341,-0.9434451525541403,-0.7018328167262706,0.7069960068688849,-0.7903271481078462,0.0024052551212639306,-0.19492013168526576,0.4178041705632029,-0.06562156023915583,0.6314329778086198,0.04507981751855383,0.9065685274388321,-0.5411374939222681,-0.6316323817063128,0.08608011858186189,-0.0781723503273155,-0.023828198515516395,0.11348953219945711,-0.18623266293696147,0.5059555473500102,0.44681357221390955,0.07427011345133247,-0.45923664285887444,-0.42220546500371964,0.07226479845829326,-0.12352427100818253,0.13874669780573992,0.19961510631559012,0.548372658567829,0.2868063380052573,0.2699488391382052,-0.48934566507638977,0.5068592856212111,0.13142184074009586,-0.3222371596869509,-0.3944227980817967,-0.2616300332225891,0.3559587609919929,0.16380565946952638,0.042478581182724254,-0.2442609811928265,-0.42830369397759804,0.11351202983485491,-0.03711062194013227,0.0855039591621529,-0.2808160755308614,-0.5126260376266824,0.22595016209049376,0.12974410282499246,-0.3986524414499702,-1.2188845775563206,0.3482085535160389,0.23034230666060843,-0.43251989476432456,0.4618676144797502,0.6105253336145783,-0.5116997828450647,-0.45484329959584585,0.021009942596436244,-0.13991931926946732,-0.2907836687095681,0.1778891624483898,0.4235215958116732,0.047808355643846986,0.00409856088290425,0.23095332002055793,-0.38628783703483544,0.07830427304657163,0.43455907424709317,-0.16488529872598767,-0.611636559224833,-0.2751415451820124,0.2782004450418402,0.5174839962379987,-0.1388743517971156,-0.25588254901214025,0.03779740174059132,0.4990619420702969,-0.0029868408870890877,-0.06733415210541013,-0.18575253974862058,-0.22373202866557615,0.20489989361569913,-0.2283693483820612,-0.042437529106435036,0.13482823865692395,0.2614894285344829,-0.2313765669181108,-0.17282628813854187,0.2747835775465454,0.02630940669994928,0.5119275988556308,0.09764263107904549,0.2938490571071548,0.158379513325813,0.0954651875635536,-0.18314451958747754,-0.24776444971849293,0.3180169660596635,0.011560252702473938,0.07157340628449137,0.11962234097255987,-0.1561815547592414,-0.010144637970444015,0.04450745501682166,-0.10010244917587774,-0.15861247217387,-0.18572117447632508,-0.27086233340327986,-0.058680508126689165,-0.02497250956332836,-0.13223700751708117,0.09454510630584705,-0.13848672458981298,0.3352307337635571,-0.0005453642112930256,0.09057951462795348,0.30287680868293043,-0.2848990498494524,0.058397537459386265,0.18799274766966922,0.05038310658430363,0.0025611844753061722,0.1241998563265725,0.11957535475901492,0.33993614668107575,0.11028456263181126,-0.18947157790268188,0.13556124608545378,-0.06154345136263145,0.0687024328093848,0.21783246289477703,-0.10540602369622737,-0.19908611049497646,0.06284469966714237,0.2054370535332961,-0.021830558771183946,0.31864086627710997,0.026963727887276183,-0.041527712920281075,0.21650742735608405,-0.2887588830017321,0.3049245847430324,0.269125395370434,-0.35824253000020984,0.4142386362057814,-0.03518500357761335,0.1892128205946765,0.21769282951080884,-0.02540593987142125,-0.00045186389152027,0.47825767284887877,0.024875002221931574,0.09912111216483326,-0.07902396994577343,0.027620331923157146,-0.07393574876004316,-0.3519723398478936,0.1326207571460737,0.20027040748889488,-0.10350078201174595,0.24030829354276018,-0.00455498481441874,0.0822918193508055,0.3412585947219305,0.007294565712573397,-0.23795579208424644,-0.16125070890344012,-0.10240117510527662,0.07852487932236538,0.143631793918884,-0.0013469842820597055,-0.251552873182004,-0.44187400985931424,-0.1409509199411651,0.033215144825695,0.07556431755102065,0.04890714113794078,0.02210561610156257,-0.0256080915240249,-0.13243156392727518,-0.13154456181280264,0.06712218932285649,0.1626607462780817,0.020348579108641022,-0.048818265932440125,-0.25548556708043646,-0.1054831317864645,-0.04213800882909213,-0.0173066470743647,0.0238323880893396,-0.16051521036744024,0.17278604164123307,-0.02557220880996852,-0.10551641402257785,0.05581508079526969,-0.20054341194476794,0.031883958878916145,-0.011908291961778457,0.34988218791930853,-0.0017690184402419905,0.14558109235964287,0.01935650078827526,-0.034715280289579875,0.104442452607108,-0.04321635430409452,-0.31045845185619064,-0.2152718233692537,-0.09124791530231585,-0.13875022852238925,-0.31084497819099,-0.1149815577435393,0.1456021771891529,0.02905679721845774,0.13301681391697093,0.018630974351861722,-0.1937511749751555,0.016405671743079216,-0.04131934094685413,0.09658485585954979,-0.1670154491588156,0.20228822251212228,0.12725515572988028,-0.04027657847666172,-0.004114056968753513,0.04124137747402679,-0.009264434551275229,-0.07067750528866318,0.10068382581712047,0.042677381784977826,-0.011627933365822041,-0.06711376187174369,0.0740086472156055,0.022300838560903206,-0.006441925786361299,0.0716181823449161,-0.08024948882593992,-0.012182051913195978,0.01638889611938517,-0.08354129022816237,0.03424564879743562,-0.002164843327839233,0.022199013684229916,-0.04159069005253642,-0.0973811830076891,-0.07085472077284008,2
3,-4.626337355100257,-0.9015791233076493,-1.3514307816010929,-1.7671171390617475,0.8701661321513735,2.210025184520443,3.7106940074930823,-1.4781148526643313,-2.4062377133871014,-3.754295202176331,-0.5577765322410155,-0.7859668231630943,0.5209488622266276,-3.207937469172999,0.8367120639947752,-0.6330934223785005,2.050584280212229,-0.264177173727319,-0.16162753006392416,-0.9222193398147627,-1.3756065905835815,-1.4017507597089938,-3.1316252981953925,1.0015837829104477,0.8952105316815855,-2.513784930187408,-0.5181603068626043,-0.4829201173423267,-0.045858403310741105,-0.7060366201123884,-0.24892307379711082,0.17331735698870812,-1.0488353625739786,0.13186231552173006,0.19706426900343146,0.2819345819766958,-0.3823005250429442,-0.7612950058623528,0.30048264935869323,0.9571673748354422,2.8420549191067974,-1.3468619293233823,1.4578175731746894,0.6547457650589282,-0.08754310820256347,-1.0203659798165077,-0.7657424436267234,-0.7729086705338325,1.1217806731727287,0.42365821879258725,-1.8189053332483913,-0.9261397298132991,-0.21638301064543217,-1.6624069576697045,-0.4862867675224339,0.19640766787697236,0.3227839813594293,0.6595593574678112,-0.5813694158940081,-0.39445933239885456,0.19709460858946565,0.5790730357621257,0.11540235972377424,0.5682974772771617,-0.20155161523408713,0.45631173413170173,-0.14605525692417148,-0.13439918112174906,0.35910969253891756,-0.101004069646933,-0.00019301875204658802,0.45926998892473936,-0.7285173774100413,0.6226338983206215,-0.37585912861720155,-1.503076452882118,0.4741177687823786,0.5523124209519974,-0.4271479188819242,-1.3398552223016365,0.1521201677862327,0.5428852960715449,-0.14991485314735215,-1.2829106138965127,0.20487241586556476,-1.0304072860021718,-1.9947290003832605,0.047005740565065054,-0.0673493544295583,0.03868802311740915,0.4981185388901144,0.7027002045232512,-0.6263453318778961,-0.41681120839470004,-0.25282515532544586,-0.44599461568809456,-0.7494583719242063,0.42431897786423833,-0.7202719746775064,-0.3278386501497748,0.05806720880245273,0.4557891574289946,0.5967615288372556,0.30470649667124644,0.10286962510081162,0.262713096836962,1.760954631961322,0.4693727248886484,-0.0025690438474328344,-0.1813999643896301,0.3108762674423427,0.1912101300441777,0.6183344136182303,0.6209704602072728,0.9180680381852622,0.38432667115413094,-0.2588206396132352,0.3107262566916725,-0.6891637137756599,-0.6070055163657674,0.25776017522983496,0.8433977318643754,0.26973976056391813,0.08489049085443982,-0.3013278312632048,0.6776835994904191,-0.5106489220679874,-0.38531243924546227,-0.10975052852284135,0.4751623175762996,-0.622291423758859,0.1662496797068662,-0.24305884414812967,-0.2720184727971334,-0.0069714775481078016,0.20815013956758238,-0.46912570279371313,-0.15255105258174967,0.14396870210111776,0.5274292203731923,-0.034340232142925364,0.11537322601748887,-0.06499522605546114,-0.5300626661959252,-0.049706804310324856,0.5736972719609141,0.5860040488953675,-0.34965223525941397,0.26995416175419523,-0.03642194263892366,-0.4294007664094839,-0.08368321613738199,-0.12261906234940047,-0.39192587546899676,0.6871974880874389,0.41887126895105525,0.15327547421428683,0.4951114402439651,0.2022060974433231,0.029197015722903643,-0.03874811395096287,-0.3701415362938406,0.28195869877982904,0.006852378651853536,0.286895801827358,-0.3460327706103693,0.36858818311765745,-0.002296139756362627,-0.25111816848929525,-0.21131392135800275,-0.3667609638535426,-0.05847341219589229,0.04110389667600022,0.12671154867264922,-0.5594267083786859,-0.21860663398054597,0.38064293704850727,-0.16370129500626265,0.01926480782569509,0.02464143359475779,-0.19611741154367773,-0.31585544875371857,0.08297341257379746,-0.24007499922508077,-0.11663000668719398,-0.3420137650154268,0.06931866691326703,0.36414703440935803,-0.194998503198706,-0.21121712573985438,0.25987788325507016,0.4838419737829543,-0.3285240922611321,0.6607383901898217,0.14568433508305287,0.2658444708264087,0.36822468868618713,0.6309115532109338,0.3132413392435046,-0.101303443164263,0.4345782960245252,0.42786268853310333,0.08665232021096712,0.1220106000996615,-0.032471792546479146,0.014766251259438553,0.4603501477670224,0.09078480183992355,0.11455655963356956,-0.10927182746130933,0.28307068858064605,-0.39885399041797753,-0.1530506482049101,0.09495966265353843,-0.02810222160662723,-0.1433431653000649,0.06904657641453675,-0.14236809740951367,-0.033313886440558625,-0.05463497466875441,-0.2579747574924319,0.31115045948654146,0.17699798615956974,0.2739056865231432,-0.25515058547116715,0.33614319852649693,0.25982495106570214,0.022425741894763804,-0.11058945819662104,-0.020919109593917982,0.025478277378906417,-0.4241555810588058,0.31843164874399943,-0.32441216876135615,-0.1202500286665693,0.01213838364251236,-0.06991182800630352,-0.43740966454033914,-0.03492159657405845,0.4427707571950957,-0.04686667610954051,0.07604806890541614,-0.4398122699387303,-0.21715783855135207,0.08378962526547858,-0.06572239129319193,-0.08300907396454729,0.5507791456978777,0.17889396476724764,-0.22466498677030564,-0.06752005169241054,-0.4266038145462952,-0.10301141791776915,0.08131362960303255,0.17773504917515603,-0.14659067750986046,0.16708252813599128,-0.16679060244317517,0.08452499465103558,-0.25046940403953627,-0.2207580642484146,0.3283506474923714,0.028297765165538478,-0.2773106876969337,-0.4679705278187679,0.24134154174365333,-0.3281447716652339,0.24032128318560475,0.04660032842004347,0.15353919013343514,-0.07980786038859669,0.10101823667152056,-0.450022239115091,-0.18466835303664633,0.005470019965063431,0.03289259183879049,0.5191735414003801,0.27795556955690304,-0.05059627714922227,0.2784609245178853,0.1746388649222309,0.04326132494684555,0.12226960530016197,0.13470744924637412,0.22460293276553298,-0.07784057875888588,0.023124721533061582,0.05937070497529732,-0.26321618930820406,0.1390679451037097,-0.11927686916532781,-0.20508839724688288,-0.039741658478753786,-0.1988538891991931,-0.43633541961495376,-0.008914340153832521,-0.09396859056135586,-0.03702678627916897,0.2627575927158758,-0.43306137579182014,-0.10990302490954178,0.21968849194473158,-0.5510379627762333,-0.20270154889533143,-0.1710366525178221,-0.0038071376943568072,0.22838452808148801,0.26910309585980324,0.16708034771326857,0.37651767783783463,-0.08472376753397365,0.014872647877643598,0.3499282605341964,-0.29198549892750064,0.008701641643014605,-0.15236612961382856,0.08548227084146819,0.2189711512882271,-0.24445083173344795,0.18783520496268233,0.12372562851629358,0.3439747487930148,-0.11163867942808763,-0.5453681976718648,0.09935688547929034,0.040488407242140645,-0.057200198045742286,-0.3158847477781748,0.13300529057581578,0.03775713321383607,-0.09894821182474291,-0.002322015411205659,-0.2094714581562873,-0.36099470867875183,-0.019084433216902598,0.06725439019297635,0.16027608966480253,0.025022886869032413,0.25617536217614745,0.07127231317225506,-0.045484522670123206,-0.06299984871488042,0.02575828270166992,0.14740202834203425,-0.04362033414229675,0.05267848670937792,0.11758555697540513,-0.11801428099398066,-0.1426402682168385,0.2671877333009735,0.0521910077005905,-0.08613407455079197,-0.11915891366037844,0.21930819869704815,0.060451354902628596,-0.04681317045457204,-0.19155306158765378,0.19298536964116703,0.09420317446128217,0.021312952810691878,0.024005363139464372,0.1085545407158402,0.28507423232659274,-0.07477960008733558,-0.24492500375218873,0.2529435344349818,0.1559100004734104,0.13433174575775209,-0.0353099824322992,-0.08356384386808566,0.08732333681970851,-0.058963070721132355,0.16912192571473586,-0.05899476003159804,0.1992938718679967,0.10866153744592853,-0.025462076678576043,0.06969629625676466,-0.2297033629363956,-0.002244861633223059,-0.04284698140635746,-0.06975021267160189,-0.22063899516456162,-0.041439722258775735,0.050480941612960656,0.1043447356710866,-0.03982931997888423,-0.09766241455332801,0.07852890366967204,-0.052379667220020194,0.048149289114949034,0.028605802294573796,-0.046751961687684265,-0.0988307503383447,0.04357333288267654,-0.11921759010326138,0.010638774350918263,-0.1105232297709837,-0.04717301315774535,-0.07773281869911991,2
4,-3.863027432547721,-2.8052591406079572,-0.42845663371139153,-0.48245187229015435,0.23149750749644182,1.9770556386560438,1.6055099500073646,-0.6038661563945326,-1.3121704924149098,3.553396284492887,0.0021048312552221808,-0.6353301242423651,3.9340873333519637,1.7394711619647614,0.09249777801276972,-0.375677013083424,-2.0621967305165696,-0.7440166780614796,-2.1093328422235595,-1.5861436827742361,0.19097777870474744,0.2952585938062703,0.25774877036829563,3.029742444514418,-0.6515866944602637,-2.4868301283480077,-0.7100953521397387,-1.364977836467291,2.452239128577875,0.9679866944446307,-3.22889356587834,0.35510904625572487,-1.9784440563744075,-0.7216502317304915,0.7638418148042642,0.4078820767664392,0.3988576078770523,0.5989489497796019,-1.0798754944405005,-0.5529371267159396,0.49031343857985055,0.538113111594799,-2.308829584359509,-1.3831953313576288,0.5195026276609048,1.0653034818892304,-1.036219874915115,1.2711059859065004,2.9233566399269963,1.6701013241862313,-0.903295705818531,-1.266221240889969,0.19136907101524292,0.05289312134693178,-1.030227490360801,-0.41231185856377944,0.46141954322199896,-0.4322720862391868,-0.05366727312647641,0.20887707811598935,0.7171406999992048,0.0197727029944777,-0.2842931010516529,-0.6582111731291184,1.7356800656964977,-0.231206189613055,0.5785185553926726,0.8419231807419021,0.17941563107264644,0.46890820191347,-0.946069588777046,0.7775884708178437,-1.0652586652450462,0.22004093152743015,-1.7070773810812285,0.9809791555550984,-0.19816581665520636,0.6042747328644965,-0.8686446889834887,-1.0287379018604432,0.7317259541335455,0.8716619289742811,0.7286210447241079,0.6691923982439855,-1.292467402572227,1.6716565594211574,1.7088707114656347,-0.48400251154477186,-0.2968953544531149,0.3188046721229262,-0.088468802661264,-0.8648114239103397,-0.3545243017482255,0.6222649150682865,-1.3234865988312432,0.9468610868835285,-0.9363437650258221,0.08260809185226631,-0.6097154135231371,0.14744304832283345,0.13935170150623438,0.160340998810921,-0.45571441864724355,1.3894185619800232,1.4194605257248512,0.39872236948768375,-0.6860693205189694,1.277138908321885,0.09633452379088937,-0.07973248838378333,-0.5980594069468859,-0.08515879055539717,0.6785035312448011,-0.6646933279119329,0.28361062384136415,-0.41910822154367083,0.17221110984560897,0.6386470338866665,0.3459897841622188,1.4280732829943452,-0.315493611768905,-0.443372875331189,0.17149655274114148,0.23891994586766727,0.7501181437993888,0.05208627393629989,-0.4423628794964861,0.1912431155090829,-0.3824632887773939,-0.527438643445236,-0.01400957185209719,0.28914374022164335,0.5307524538139391,0.10987945961140916,-0.4798977008175277,-1.5321896269019448,-0.755834382460103,-1.1569765946914532,-0.7286918228995853,0.13517010021047665,-0.7306828587322389,-0.7638854055262687,0.4627759301400461,-0.42255108961519655,-0.358470749504779,-0.6518984060264613,0.3500534506017463,0.22515208750336782,0.16139142703458814,0.4066171170954053,-0.3164393104116945,-0.14115308310268662,-0.03646438416278917,0.8998319856295987,-0.49286641139748355,0.08463277676237674,0.517665060768114,-0.3702099340293233,0.5874713516716572,0.32471755820072884,-0.3246941886259916,0.07475942770147208,0.06282070666217793,0.2969395632812448,0.7596949595473691,0.4214672428620078,0.5906436295883934,-0.409235912267091,0.33047919599931996,-0.2204153313509109,0.0450390467937531,-0.08367147238224444,0.5328990739685519,0.4222992541667981,0.38440664595914664,-0.18393327982537214,0.4841591582143987,-0.17518675749625626,0.5328021445020992,0.5304312126736396,-0.03293050698123179,-0.29977133399597755,-0.6435613194745506,-0.05235423079558506,0.11264536871147268,-0.6383242421722601,-0.01431615992455339,0.24172513719515254,0.28849230777590074,-0.20532003158527115,-0.38050484107877197,-0.3533754376931459,-0.02305466391089226,0.30232024276226527,0.03307863954591462,-0.44093749648059904,0.8518445633840072,0.5669211118799906,0.32926986636325106,-0.2581425947620051,0.2652804015731362,0.11710279898981857,-0.1413793020240518,-0.07022697656095378,-0.1939167613160858,-0.337811242892276,0.21423670225042526,0.34445436034391297,-0.1279638634174083,-0.035168353377142685,0.284240500014216,0.018054392283181564,-0.1688510768672729,0.10849878485010252,0.16440698726715813,-0.20870976964900081,0.18669034369632564,-0.07271319188484965,0.23190713383997774,0.040320279220218205,0.018872962733597152,-0.10782532163950241,-0.19993341219206537,0.41647476247115106,0.07671398283737783,-0.051712640136768316,-0.2435156468518762,0.07565257932216676,0.22768090800005394,0.5741057634540394,0.20512161542492252,0.44717828882634414,-0.2537267806202687,-0.5282689784789676,-0.1388116902274111,-0.6507263032857514,0.12230790550258101,-0.15331609862740722,0.4257389018344124,0.237080784784714,-0.03750068017471681,-0.13808171781436088,0.05266938139232434,0.06388900257810844,0.05928986724852728,-0.1033565597709159,-0.22640941067759127,0.11679220903202672,0.2843768160882447,-0.16209273639010283,0.17355499783546458,0.5154959580633259,-0.314474383160894,-0.032979828519335785,0.08179595524007029,0.24307621345065725,-0.2452061771913927,0.26198350692817474,0.011280480882531722,0.26683982466836265,-0.09169760966981322,-0.6152090819899101,-0.1895030652758978,-0.21068197216819942,-0.16615045429978098,0.0441423391845251,-0.07830217788637024,-0.1629744025317131,-0.04119184306606663,-0.013816719162933694,-0.32640642867350156,0.3353953621024661,-0.09879675583965503,0.0223158603435957,-0.1519725080224774,-0.1953341496346027,-0.21486639194553833,0.10089551490567479,0.10606267793928335,0.34347330999154774,-0.11566871598927184,-0.18390767153472026,0.03226412504335636,-0.0475462278255381,-0.25121632148026785,0.37847887661730084,-0.0027988151974037002,0.1603283958426322,-0.06653443320051014,-0.050860474449688386,-0.039770132452079006,-0.2943930608712779,0.01996395200556786,-0.3877294002675066,0.0367094326224052,0.15051052730214046,0.05977046875636954,-0.029953864729673537,0.013918938790779673,-0.16308472218920775,0.006360861791309362,-0.09636663605762241,-0.023455912048935833,-0.11145287649608958,-0.056792555422191734,-0.012834121509901427,0.022664289240914837,-0.17207187361483336,-0.1776823176447874,-0.26770894876715023,-0.07586711035229006,-0.16166568419500432,0.12965475434573473,-0.21256500478961807,-0.2883003897894252,-0.033145709862691004,0.08285423463129432,0.0296957896321058,0.0833791759927069,0.10923025243969849,-0.06477375794957053,-0.07320154882629332,0.2267186786586304,0.06499761904608677,-0.039914232332725376,-0.12774292100798362,-0.003528577829202934,-0.21477546430060887,0.08194689528745178,-0.060194985899210345,0.007093658547504019,0.203961086063103,-0.0851346239472287,-0.03230488762615002,-0.20426811484333554,0.15034486174186065,0.12718239144686308,-0.05797209402028283,-0.24964522442064374,0.16272996707467188,-0.07370958906842962,-0.013738534565847628,0.05199852987272073,-0.04892697675207896,-0.07111089186283782,0.002472954967638352,-0.10466913462115104,-0.04525815104549762,0.011658517616616255,0.06387391282813615,0.07575264274967929,-0.046528935535101214,0.08067240207428532,-0.33958413922597597,0.05908585667104836,-0.0019496842168346368,0.030289567243656577,0.29592189946403785,0.014556527122002557,0.10594943810451012,0.013443587949927562,-0.059020305125342475,0.019093665968647294,0.2291706755138175,0.03187679337849848,0.046003596681100836,0.08855316610034684,-0.006622106534219722,-0.08235496931239294,-0.019581779674295315,0.1577988339722932,0.0615904822960398,-0.08582476104988389,0.20839303045078064,0.002071506054455021,-0.10720659598149516,-0.07185499637478363,-0.07811157858549295,0.03198560288453043,-0.01747060181783396,0.030139943540148376,-0.10494963288815104,0.13632851767580428,-0.02588883698510168,-0.005955782894176678,-0.007188678877027688,0.010320009525221609,-0.010182387307500514,-0.02539173720007368,0.13703015186897205,-0.029643615918377643,-0.04730255253649832,-0.15614297388091322,0.18445032907337036,-0.053741991383458226,-0.14340474388903385,0.18001744517746526,-0.05345110712144332,-0.04810598463871057,-0.17204802357689247,2
5,-2.588468449572577,5.339308948232525,1.5295728287772745,1.2738244029310772,-0.847100276711254,3.063719477165683,2.483445482925365,2.2024439207978546,-1.1984117200684565,-4.5326288601495675,-0.885066817769925,-2.2708397849546285,1.5897907817342856,0.23326672090481804,0.28522983767464377,1.0565585845414098,-0.22516157026960074,1.7805007984260124,-0.2688683757365234,2.1791589017594317,1.7305449462312752,0.4714096839742377,-0.08795556135938258,-1.1555273079340067,0.3006848721608826,0.43009874344329346,0.07850398378644555,0.9691196658468983,-0.00010224363414239119,2.5116667648045525,-0.3062713444816368,0.16140286832337392,-0.7729030242480917,-3.4683143190794916,2.677906234141492,1.58507451773803,-1.1156919041554647,0.4607837758660724,-0.7171710785768549,-2.348136904373021,-0.7034639075206961,-0.509988386120414,-0.46467312842202135,-1.606624164521679,-1.299252743278464,0.011260208949470473,-0.4593176096443902,1.0441909265637261,-1.1966197070418798,0.0695536085698478,0.0808215050933015,0.554112744874514,2.2051135447261085,-0.9883424885754616,-0.42881959215732934,-0.2420819335211285,-0.035188344511562004,0.20969881549841282,-0.23145933373894928,-0.6217491472604073,1.3203676694880309,-0.12944219702274565,0.2758622509409503,0.06913790570225858,0.3064079585541944,-0.4366683942950034,-0.08651834796187603,0.6435843857296223,-0.06620234566699522,0.40169925030261006,1.104041711967973,0.9107980031703318,0.6874166557916622,-0.7984351930148751,0.530572217868555,0.4195614128854693,-1.2631609665837862,-0.5289117205519164,0.5850889823453749,-0.9524495652548837,-0.6844332442763645,0.2972085258102173,-0.32412666302136967,-0.06660443204857058,0.8325515791227643,0.5944084264053027,-0.2761319997441176,-0.30100005365169336,-0.33302033208263104,1.299545237953078,-1.2518975446915996,1.1349353177966792,0.24628205935678277,-0.358355844681356,-0.04722938516308731,0.26582198200361407,0.8610244178501694,-0.3014923178876259,-0.7805402168288291,-0.5705544495420167,1.1830382418309293,0.059339319265096294,0.19777316146022214,-0.15452760588775105,0.0022109934027475507,-0.3827742931724272,0.23570990875470552,0.8005534035408964,0.15883364596637103,-0.13902488109520983,0.3380577703122814,0.42126414744945406,0.2347156838267018,0.5735587553530281,0.09466776611952152,-0.5372093508371346,0.03065814168570513,0.6608566780210784,0.173150101413493,-0.572689071545639,0.27037605793528086,0.06650311957538896,0.6004572027844381,0.4791984863481383,-0.830172128391548,0.5810792970734179,0.2681427276564648,-0.3509424731764843,0.09337863109989517,0.08896947768683156,0.579903402009952,-0.12895258815852903,0.30592652081416677,-0.11735665121042699,0.11898230310420455,0.2770055967630863,0.2612392525611073,-0.23446763493366107,-0.08167350108459871,-0.2980222016832253,0.21428043994276993,0.726672494012069,1.210613853138073,0.5573822895832997,-0.5843110562924508,0.36383862054857086,0.37442478006840113,-0.8160933360298016,0.06953681061222873,0.4895648145046138,-0.12733303646907662,-0.7408900387580492,0.027889596670787487,-0.3761017511943654,-0.07299794612913912,-0.39319899293504235,-0.5441804574707545,0.5733188955441626,0.09867772095070614,-0.16134916638211866,-0.16080296682242126,0.41731126760248316,-0.0376016357900679,0.13901028000001106,0.43402072237239747,0.027624815625911316,-0.26634675667236907,-0.20508765860322176,-0.29400158852699926,0.24852869700136015,0.09452720213998318,-0.36684840303868094,0.2783646707805488,0.1256279528892992,-0.42644319159000466,0.6773141553272412,-0.5771051972301117,0.011163326684272218,-0.14605674484834433,0.39472758346444464,-0.14291323271472417,0.6905128157622126,-0.6796614872687196,-0.18827505359184313,0.17520064362303292,0.08609659021251322,0.15523024682052436,0.2500876105990885,0.15571109045579165,-0.3073456507750831,-0.09261586044322487,-0.7628299033741451,-0.016147231202961895,0.21217770550747028,0.1951082524900086,0.07035150903472749,0.30509564685192975,-0.19491253234954442,0.20301464280582698,-0.034315579360436686,-0.1166983339463016,-0.11616614370688495,0.3495537653922814,-0.22080832792090446,0.019761084874237833,0.3164473877717363,-0.005864214934704704,0.02521815305226281,-0.25531458250181854,0.0037469879253692762,0.19197718026865143,-0.400824179706479,0.03265421858340657,0.3105918366503326,0.2758827175701621,0.01607191669731957,0.04298045876222985,-0.015010581657767204,-0.011353695973402664,-0.19416287122760437,0.05134853075774137,0.058627058080403555,0.2514714319644599,0.03747253716550881,0.4451083189227961,-0.4340456495273599,-0.6200891021900056,-0.025666650050975764,-0.0890907172510928,-0.0060086412755206865,-0.005179644566683355,0.2973496769835509,0.11211645049441828,0.21588496373331553,0.16291041262820605,0.39937950253050175,0.08815173669078372,0.08659158303442081,-0.4634649112580756,-0.4301384436841905,0.04203628659289575,0.40627465903547444,0.45961598991421954,-0.034236845667445136,0.558260241413522,0.0097760024563181,-0.1014378808360634,0.05515208784366233,-0.2077324678792441,0.2167997834621253,-0.1300645584018006,-0.15892567744771266,-0.22162976419103392,-0.1584113211403182,0.06619956150269408,-0.23157259043434644,-0.14495358252635634,0.3142237217336326,-0.038774388215763234,-0.06064831509857342,0.25873990180951334,-0.24193354158536562,-0.11105468889153339,-0.44883205338317017,0.31613541456946687,0.01735655787916992,-0.06653329347100584,-0.13175435156029755,-0.07332736642997804,0.23282032435708525,0.2686376903218559,0.07639558365502147,0.031074092653567323,-0.12080765654076873,0.16848389063724423,-0.11075804888682306,-0.2720877003603461,-0.41878842776737646,-0.08692240604382363,-0.03360322135444765,-0.15876440663236316,-0.3234108462459212,0.2468337183877901,-0.16043062719213091,-0.07412973813150961,0.01441072127773877,-0.21212474669551898,-0.15234292579246228,0.012995514886324637,-0.08723311028459028,-0.017698663076373626,-0.04620860226323729,0.02353855469711597,0.039568195263314655,0.2545607477778582,-0.21427129670801937,0.09351752657571807,0.07555992347270396,-0.16594223021092747,-0.23361645969273404,0.5011247199412066,0.0381227583833092,0.04836132702774426,0.13196544968082327,0.23569642131023402,-0.20935636332825774,-0.08660480986170672,0.08398964045640225,0.00016427409198376602,0.12586410792723496,-0.07421750899908494,0.09878281718939248,0.20673758531770767,0.006629042962212058,0.2816503183476912,0.014670319446940848,0.06236348672898778,-0.030117873776799017,0.012860755713386912,-0.09524711003337552,0.03943515885176961,0.2110192497118053,0.3673706729606631,0.01174056409088658,0.2223466901028913,-0.4224298419132061,-0.02315444124026909,-0.09453908548143865,0.2310143540437882,-0.08259066384377126,0.0064003589745051945,-0.1928444124930891,-0.06710127263581304,-0.018790210837804702,0.01504573910971338,-0.2959241056452865,0.01327590212008804,0.18635629376452478,0.05967456963922814,0.25371763873448744,0.20255224459008606,-0.1562523407517572,0.08801072532646909,-0.05221598557921276,-0.07625597561310175,0.014591526106470321,-0.19880855355371066,0.2202375925746442,-0.07794187568455713,-0.03848051204270247,-0.08106133081240986,0.002891031291126814,-0.24556525448199318,0.00016195726145453162,-0.07226840265927637,-0.10496837824436926,-0.07763669934912179,0.09324767048670851,-0.046561428471666694,-0.0643305843337016,0.11000208803351351,-0.21681356691793977,-0.04360808150592364,-0.06301354723540448,0.003381812026238932,0.15616879935732048,-0.11210679276625664,0.03721089614255139,0.11917318596116255,0.1372971171686288,0.1160448003145329,0.01204067880354165,0.043744186443340695,0.15301398280785966,0.06558578360867603,-0.07436386235349947,0.10353951560707601,-0.033130807176521074,0.2518160196881822,0.09897055504593073,-0.08001503182995613,-0.0025786657210485823,-0.05865731261144987,0.06734864914485754,-0.133794325177882,-0.011204479488306735,0.21225452626222516,-0.289364815730082,-0.23490101044063688,-0.10905145450403407,0.15515869684364197,0.04057696003720855,0.06745720560273648,-0.2116588180877331,-0.19762888253706318,0.19783946929541305,-0.10309733682366094,0.15810926340900613,-0.009429486779870492,-0.13953748825068804,2
6,-2.7767434856777573,3.549869055074843,1.750477918542686,-0.7335149791152911,3.5921866994603464,-0.8307530819321843,-1.622951774312,1.9772757621628652,-2.0105366466013495,-0.09505135058164335,-2.2661046866573415,-0.3619056683608041,-2.0477978277420332,2.285102096396191,-2.2135389487360007,0.0561663364510845,-0.08866730828338341,0.33545673191240005,0.2889175806579321,1.17742101360301,0.7394540946756735,1.4919681148818444,-1.9807927086045398,0.9132834861021488,-2.588072013929601,0.23723458175545978,1.3910944869343755,1.6857504122918239,-0.9670883646376583,0.5918049383827009,0.02875173297727591,1.61577835743457,1.1183033874487427,-0.9878359687551184,1.2767648191067316,1.091443777779189,-0.22376396944570814,-0.8401319905896354,-0.0803438587213375,-0.30983375382289846,-0.6149530148750774,0.5894802233585787,0.38765334732850704,-1.198198263844449,-1.6378513587149068,0.6218546150092784,0.20849432485518232,0.031875165014489185,1.653281846264755,-0.5931169703511748,-1.1613676855727695,0.4897624299827126,0.8006613849154813,1.0635516591860383,0.03857290474576327,-0.8088503733589966,0.23854636585685968,1.2122644089147099,0.15583188996853958,0.3099030299970259,0.5767967171009406,0.3509641826855301,-0.3258675707710749,0.5318294543865408,0.11248641517153979,-0.6084455522233008,0.75064594682568,-0.27808883053028627,-1.282653133083117,-0.022553040354546274,0.5629435577112695,-1.1504356868892769,0.7771834446656417,-0.8637562560781263,0.035819886994579136,1.3251541854171698,-0.7513860833341246,0.5518389605019219,1.5573541056671252,-0.22164913623558924,0.11683088333359881,-0.35221022802028695,0.5170049113227968,-0.0691276591264469,0.02806803443063757,1.2363143447545193,-0.26593874590996236,-0.43948308762939664,0.06206505310941597,-0.4414526057770444,-0.7138004735860843,-1.1477454250810124,0.02603694583543922,0.2456287271192154,-1.145252072957339,0.12871647737965178,-0.09278592241200118,-0.21193763070022467,-0.2752523006626577,-0.9032087004662114,-0.41874685355599217,-0.6291114100342667,0.3797816528129357,-0.5210634882331862,1.1010592931320018,0.5156864212949428,-0.05136430124371601,-0.567145245793323,0.27979649387780037,0.09044088468905925,0.5179356354704218,-1.0113019742973104,1.0389460414523153,0.00467254478843908,0.16315345559747058,0.1646502544981593,-0.5260691909861592,-0.17308179348828448,-0.1911700833539982,0.9818460958257288,-1.0944619123699335,-0.16755790459186665,0.469815250229092,-0.2233274601962228,-0.1259801059769996,0.3282261659480554,0.19791661595438595,0.41840878591690717,-0.5234494340590985,0.8036220151216011,-0.18290444178521154,0.5783923832429756,-0.4148745871166909,-0.01365903818542695,-0.5458809010697778,0.08894342795021931,-0.41651879291116395,-0.48467784972156003,0.2567859294371814,0.009747696485647777,0.068655673001391,0.019223446789382384,0.04374847891564131,-0.2472262160092809,-0.23262678981984863,0.3237371938072877,-0.19364083251809133,0.20348265087676382,-0.11997976007622663,0.7948975156722018,0.9726214723737041,-0.11487087613915643,-0.31067510038688345,-0.0005515220539601404,0.1765674128502676,0.4824290925895393,0.45394874621430986,-0.43186137597835156,0.6674098705688916,-0.16564078191231704,0.9584085528051748,0.453861029939717,-0.33413666788491386,-0.11816039576060344,-0.18736639216723164,-0.1065083821247587,-0.4418486967299575,-0.507452787795864,-0.08710879819149783,0.888192493212681,0.16894675508004742,-0.6810857301207202,0.36916398541474577,-0.27811439856852344,0.2721946163843248,-0.9336114911978785,0.1711082021046688,0.18695736549041392,-0.0017239163453791598,-0.07618148097093795,-0.12185943139705331,-0.4040229040394995,-0.27810196490335065,0.0032844180308045797,0.6676443599073492,-0.17320396532250426,-0.08367326198816226,-0.01635711044036967,-0.21335745248663082,-0.4133902532926395,0.0706244518250863,0.5765546833342987,-0.5216014826059235,-0.5616136011177757,0.1073696742914729,-0.017562951047019038,-0.17399569319134148,0.023593289230440833,-0.24629466558857746,-0.00733229969337038,-0.6602831794992525,-0.28228792631630134,-0.44174813333726753,-0.37890507821729347,0.08765179534066668,0.4782637783504855,-0.4644776730172212,-0.23599520458179596,0.011262767592708006,0.007269744518067355,-0.050218117998567076,0.5248660774930073,-0.3861263280005126,0.15789723604712402,0.444740299337587,-0.14179061000778562,-0.38179595153558715,0.19406534582532,-0.06721531763046155,0.3549388065574776,0.14972341091571192,0.47062228950766394,-0.17816836635134917,-0.013505928183855482,-0.010017364651925627,0.2881213354637273,-0.0038831638399828704,0.34705175638651076,0.016267054636297084,0.28599365345076344,-0.7170743841891142,-0.1547414402295497,-0.4663091865505493,-0.08502084598446552,-0.284010746215792,0.019570555734717044,-0.1735183362997542,0.08221571212097813,0.10509439535043474,0.08577153207308949,0.224497081200705,-0.038320220070473164,-0.2198918312885962,-0.18533762045729332,0.2900791159300146,-0.06750474253380896,0.23066274557779942,-0.20991576590955924,-0.036491123331087214,0.4129445697472233,0.33026038249663425,-0.20352938282982835,0.1430888441289744,-0.34940024237204076,-0.16830402124237556,-0.16086247010308016,-0.029300513491734733,-0.12180632386928412,-0.12324017043430903,-0.1011282395815905,-0.28891688905806595,0.006815488637563869,0.1770037697674625,0.04192105533639172,-0.002765807402916116,0.10496656318797447,0.2538982290022276,0.06723135649350409,-0.34429707560697426,-0.0654482079403739,0.03300424777156939,0.29368251138748347,-0.42822766566051046,-0.2551490325378715,-0.06487594956680186,0.2467219107962989,0.11872149301178749,-0.1942988695217591,0.004368273763880522,0.10354102118031602,0.0445627547319335,0.04712886774460433,0.004003874861006129,-0.019655635235433323,0.2288365185571712,0.05451362981143342,0.44050006518745694,0.6179130299121863,0.07152188090988314,0.010039570118334055,-0.2034926421425378,0.10970157777497315,-0.3481632388211394,-0.272211515215131,-0.02919271144027852,-0.18365214518990322,0.35644000701578477,-0.05735128212836759,-0.027768186478351387,-0.3191883897546246,0.13951217781034636,0.29738773617012043,0.03314412914853644,0.3751763688471884,-0.14223350861326478,0.08194469283820909,-0.01850599172523975,0.18640907662406864,-0.1878134680103932,0.014648359884636433,0.20895878593178582,-0.0753206827233712,-0.011901705161489461,-0.10248063183917872,-0.12310142235649334,-0.08471007137809693,-0.11636736145335205,0.02054037608857198,0.09852257477247482,-0.13918303905680984,-0.03818197618152925,0.1197226846712616,0.13414911522251358,-0.11964740514003584,-0.05929574587691893,-0.004406026011344024,-0.2263025988604513,-0.059093923102696504,-0.15994450513540512,-0.13104903524389924,0.12553266542790445,-0.3136791482814371,-0.12205763771185225,0.1380479058203332,-0.014922746087057584,-0.15133125441523487,-0.14657164202663742,-0.20459763919605903,0.005716558635869865,0.011408345548997658,0.0005651318492828424,-0.020343480383915775,-0.2217636952867663,-0.3616402275493061,-0.13940549825075216,0.13945763109034748,0.24301766576030578,0.038242851604171756,0.004179169302641144,-0.0064361020473887144,-0.04856280338351952,0.1681610647262206,-0.22915009392509633,-0.1324339690596323,0.1665098803279959,0.14600309604378892,0.24562247821990102,0.03323919059653896,-0.08322721521141299,0.09861094962151197,-0.040243401726376686,0.10966808274833359,-0.12821376507319612,-0.2449971983266833,0.050213506229686594,0.11134611400890222,0.13393800166710895,-0.09933690741069112,0.1307338630280393,0.10827018870337723,-0.10651196790542342,0.11463991521223904,0.09063347637720094,-0.05996935708287759,0.024639616909496787,-0.009296418224514895,0.05027165098873545,0.12561120436292375,-0.13495591829936301,0.12931749089421152,-0.06659501026212768,-0.2377319023408849,0.04956290771644339,-0.11837393853362654,0.18937741608427053,0.18273793793349694,0.01738928041403822,-0.15962077825406903,-0.08317292912343827,-0.042577548739598584,-0.17031219489812421,0.19493113198495696,-0.04149485633149176,-0.09015548936231554,0.11588584563171447,0.053073613938636376,0.20482183790671227,0.0501959525342662,0.0036502105842038486,-0.0506239440414133,2
7,3.464496685008359,-7.402510369407242,3.746149461866852,-0.37724246671290274,0.9101173387974065,-1.0018649159814137,-0.8608430785734074,1.7092191996948047,0.8231748715861926,-2.325838699508946,-0.28302547345679,-1.3449636639404399,1.320934505369035,1.4324641717146203,0.20113871723012244,-1.8253297818010026,0.03178746167943085,0.06037566508967954,0.7635189164833678,-0.9040256580187318,0.24404806145120353,1.994032247341529,0.3434346874280232,-0.9462278592843318,-0.505662761094523,-0.8092465616701859,-1.2744235821969496,0.656059929567179,-0.32006297596277433,-0.7252769260091004,-0.4023577246204759,1.465879386478413,1.065620576295179,-0.6040498859078276,-0.40496890426918386,0.9600224111201533,0.9384791678762774,-1.0269845976600631,-0.6348065437460368,0.24254756580136058,-0.40094243959358483,-1.3623214867244773,-0.3917127353461719,-0.10773582637108364,-0.46294068318766357,1.8685038635409925,1.033061772118665,-0.64849882897645,0.20515538721593957,0.7314258911183568,0.8210551843499567,0.9142083944012551,-0.2392355738016426,0.2359614468769494,-0.14177357238032598,0.6165361631371765,-0.6581718166843097,0.1600248182644912,1.1413335706298078,-1.0314860796294476,-0.09079758162181464,-0.7753805164730427,0.0788595390681624,-1.1391141837130643,0.2224004057632125,0.19573602701375156,-0.1454641427034741,-0.45084630322992414,0.3416510155079726,-0.9426097227449296,0.006066561340537136,-0.07421482671638559,0.5916334022713633,0.31647130249974115,-1.1654869382782918,0.3043893153821004,-0.4963796257878862,-0.04350503929209065,-0.936262276744335,-0.6885564908405519,0.7682408729943085,-0.2051175299983233,-0.0361968871754912,-0.03347752036416103,0.724717170548413,-0.30066944791290623,-0.48127093059001624,-0.2661586765136107,-0.8057602274492244,-0.2535128089334806,-0.1320325847655559,-0.2702140629269222,1.3268182277925913,-0.5941529541763151,0.20760144699801805,-0.3318923175386328,0.34559869764013884,0.5335488112794634,0.1130291984292232,0.1189111509764425,-0.6636546756569239,-0.4138112398646966,0.12414024469753294,-0.14244294118724424,0.4127361378561847,-0.4447820982588264,-0.9019004094239906,-0.23316872640460523,-0.8424213804341758,-0.4489558876664891,0.025448750603964936,-0.49793083241276853,-0.39675377120853905,0.30360524041403814,0.01819403081061424,-0.17519871976066492,-0.0406743501609967,-0.04445015250754782,0.9029504861008177,-0.05161382968145375,-0.47090676259572045,1.0025359917975307,0.4794009438939763,-0.5297689838366008,-0.6065630790881678,0.9281329996083028,0.5455512435876525,-0.3909167365053005,-0.3237985898561281,-0.47797725566912475,-0.2044817718853378,-0.47175822949013263,-0.3912502798458966,0.2703283323778395,0.33765138128195726,0.24990421937792176,-0.9837731236290025,0.3349490565855775,-0.44668221243727346,0.940767924433682,0.4152980323782044,-0.03205900454149921,-0.27908337622469337,0.20464338681575775,0.003034738589623492,-0.09932872251721202,-0.16975590175816738,0.19527213599140936,0.031024657169451318,0.12992777175658543,0.031997204794853566,0.1843099428204359,-0.5027639773864946,-0.5474820032151461,0.2513855832796003,-0.9291610326405282,0.5870228016523231,0.07826102559229473,0.19689995949001396,0.23696136616975638,0.159404763017096,-0.4235540769193707,-0.3911436731316826,0.23236251059767069,0.24522671963964843,0.8268269985813405,0.3382457714186009,0.01787354251374677,-0.019748016564425395,-0.19719788050161427,-0.7565822826116451,-0.024955575931347174,-0.05783931365232612,0.21645826845370267,-0.09733222879832182,0.14041081152564322,-0.2507571497193266,-0.5563820410586007,-0.3945373618544175,-0.5976532346763035,-0.31423279715024804,-0.14102215335194207,-0.3013557528595027,-0.46159315023958974,0.12953274828393055,-0.3125357638533076,-0.404131185080007,0.21536598091528292,0.25248357616379863,0.6148069319132171,0.35213781903591673,0.2263228867879294,0.07058365099897626,0.5509554498973351,0.20503922817701434,0.31162843605591345,-0.022026455605526,-0.2869944970137136,0.3447285801819182,-0.04670209518129624,0.4044740467797779,-0.3531235614012157,0.45525219997682753,0.05010658435721925,0.2613016172655693,0.20585349400214029,0.05085325810045523,-0.15088530125065963,0.5136562446915952,0.03779839627348019,0.5422943027798407,-0.18916875159951355,-0.40065910509321134,-0.019514701534826647,-0.5786248117683976,-0.5602538334443156,0.08823588065393347,0.13321035171951068,0.21309851447375278,-0.01566313358097263,0.36221030172626334,-0.2203159254091744,0.03937936511539944,-0.1435133954702938,-0.16526281379438928,-0.1689922972016996,0.3014672657591567,0.24508935102514529,-0.15108533011866299,0.008897062787084048,-0.841892748521975,0.4977236796819095,-0.09735791981589748,0.14619392361186287,0.195967527926421,-0.16653000882758254,0.521196776398812,-0.02169393108739897,0.3107098785065791,0.16613441005743648,-0.23656324339529883,-0.2805835753727398,0.4575796759477683,-0.18097970816355954,-0.12893041214387285,0.25982560726880843,0.03706506187402858,0.06333568843326522,0.21360874234417487,-0.27998621161615955,-0.014760240868063658,0.04977479152943188,0.35271120471360423,-0.05351200467739357,-0.2276821839908605,0.08878102037991886,0.29473276127705716,0.3445969001818952,0.1478246910504629,-0.19851253526760654,0.21495032497463396,-0.03206690038051193,0.014015427787784718,-0.19527008954824077,0.2203872012627385,-0.026686152730431744,-0.19900619751037443,0.024688119300756872,-0.30883335121257405,-0.0015732121189659656,0.24161381127351766,0.037365287257286856,0.4139606828074185,0.36542612732154717,0.07869627336288247,0.08463487786820063,-0.2811179067074058,0.1655420353085902,0.0613624902730676,-0.05005605075646604,-0.11420333300071654,0.014222054179729217,-0.394452088592269,-0.18847346473050303,-0.1467970651810954,0.2081959760206364,0.4726684398622301,0.3345792397928424,0.39800632247127443,-0.5061110888556796,0.22286440178072933,-0.009099749529744891,-0.18480192279544053,-0.11449352593627395,0.14003201053712652,0.3406487968779713,-0.0200821859306067,-0.23019077617440697,-0.28114400047665977,-0.14991688220823557,0.13966656210088302,0.013678721321615885,0.08912048020758057,-0.3993038302017515,-0.11972829415879095,0.3924197727680165,-0.03878200050757425,0.2655543603607638,0.4369206711842176,-0.03585982663138316,0.02793220939395068,-0.004178242213530991,0.020475201590897583,-0.17943582691635193,0.06513602644504611,-0.22546810535164957,0.20353630520511065,0.14983181365140755,-0.4465038359692681,-0.52596689098035,-0.11024991249372591,-0.09988406333748748,0.06224847248318427,-0.2033172411226786,-0.028849284768418477,-0.07057307786085253,0.04368039470184222,-0.08244886122489226,-0.13041618835908395,-0.02346011227322006,0.06383582448037561,0.2902328661423087,0.13440481433583537,-0.03868429938904422,-0.062161794377220615,0.14766381348348484,-0.02111388878496755,0.00029903269466204525,0.07048235820515307,-0.04530946843496632,-0.027477814740650145,-0.11454846651060374,0.16723726098803876,0.2109290783879796,0.015093617058945713,-0.07585498014454364,-0.0738763050635705,-0.0935321847263812,-0.12007580800271773,-0.2578280971640925,-0.05907956548129751,0.12062303881362997,-0.003418914298337942,-0.09026512855252361,0.0857399984331697,0.003407000460780355,-0.21833627941567837,-0.21742439392526225,-0.08979591060416502,0.026865359299107505,-0.1310264478758772,0.07180613324339835,-0.08146145985629653,-0.027612987889860937,0.15238726959557808,-0.047394590601846774,-0.008783319123464112,0.05957958818756274,-0.07616525661884778,0.21766324551726773,-0.058510732263602525,0.06470615252618499,-0.14702834702063222,-0.026775047780450728,0.057437329180947294,-0.040055705275139124,0.2061488417026128,-0.18787323591051122,-0.1268277202203295,0.2590141149215051,0.11271484590142158,0.23584084219076443,-0.05659935480317154,0.14348018023241382,0.09582990608123995,0.23592356938424777,0.03408710676045987,0.27495242734526854,-0.14112151803503595,-0.25871173913128453,-0.1408574300891199,0.1636659683264838,0.0888876690228926,-0.11345800215274551,-0.12038052395100612,-0.09772500263844011,0.08784427112368247,0.14999330659736976,0.08276936145152183,0.2730854914695356,2
8,-2.7024230484629634,-5.085755275388919,0.8666506086605874,-1.7689190362779414,-3.4470024067241836,-3.415266149481789,-5.061541591531934,-2.7911419404806006,-2.7212507400344745,2.4091065005808137,-0.4737012927040095,1.0186533567356542,-0.43918318405372936,-1.2174939982254986,0.21928951836895336,-0.2951896692494851,-2.169916534233954,-1.4865607493907143,0.8262688683272843,-0.3902596873211337,-1.7300491497610264,-1.248437538029503,1.1978155296493238,-1.1282150027864077,-0.8079472758416401,1.1894130335127482,0.725320584976103,1.0104451348491117,-1.3109724313920499,2.1343024124344065,-0.7154551288871063,0.0075712925434088234,-0.017158619577173965,-1.107280438807241,0.7666031612500376,-1.0043660123240934,0.10555232312537757,1.7888106135688782,-1.6642316911530126,-1.6872114690247741,-0.8488027423968405,-0.06017470435009884,0.4590879903023759,-1.1998842069654814,1.61730252216643,2.264044867629128,-0.3736854384388251,1.2339315156485846,0.7011514046077524,-1.4554734573557104,-1.5042169866696038,0.6912840245457432,-0.7694815672228805,-0.6007478857258804,-0.8212355320457746,2.068862668216266,0.07531492674537883,0.026380077166252285,-0.3983778723361794,-0.16286720903029542,0.4299557533994942,0.19931039648749097,-1.209272721274508,0.15492262303167068,-1.0939008331460296,0.6010759012684479,0.5859015329969324,1.5903708440103692,-1.2241592880128307,0.5076770471203992,0.26416813233875036,1.1065859685722184,0.07319213337226958,-0.045182552208532865,-0.15778176808605282,-0.9567740540178008,-0.11318202069530985,-0.8391450970599794,-0.9912775685272386,0.8054518643689723,1.0253526717093677,-0.7112228735414918,-0.1033716639161687,0.49387114720007225,0.7721894750436894,0.671133728329414,0.19614559557246186,0.827357233952465,-0.42276118584205924,0.1058226097736109,-0.4928373538199459,0.06637884650572727,-0.05055293847453806,0.34474144208917,-0.023807205878109212,-0.7420922464139147,0.14067653083816095,-0.16795937363030541,-0.52349618130728,0.4630223113771642,-0.09873847911101868,0.127844703593234,-0.1481678083234306,0.5051251538501853,0.6284051060864672,-0.38363275439940003,0.20363424339624026,0.9847374124770099,-0.08817338127478608,0.16461462077966668,0.20196254929421736,0.36290570931043936,0.03865305057395528,0.44844700133633,0.09563350703325563,0.2657581090974438,0.1304996797958891,0.11052548494776294,0.13806048579665714,-0.0869589554811704,-0.04132559321135468,-0.09695159494595292,0.0771411449498081,1.276669674675395,0.028317233958714084,-0.14401558902017828,0.9269783359780216,-0.39865234643062675,-0.7684029082462452,0.21037883632807702,-0.40454466065504446,-0.5880021349090383,0.05409519774140229,-0.730178926499567,0.016887167744028923,0.14815150581285888,0.08976101221284781,-0.6048504992239484,-0.10433750430993481,0.2899201951475139,0.3678629694562206,-0.14704361852517786,-0.28115935968142164,-0.06260550356908888,-0.2119924405879775,0.4700203784321526,0.33310709133046523,-0.3178419134989406,-0.679574272918282,-0.5287467456349796,0.1200671771927966,-0.4909666425549792,0.16922472548595152,0.11925222520655143,-0.3108654093528925,0.1751133930608167,0.1367874183404127,0.8606146623116986,0.02605351537884376,-0.3119284145373917,0.8311245596727115,0.4351355614948774,-0.07920567903014199,-0.20967173472443712,0.6713690562274589,-0.41377107274343256,-0.49184597932686897,0.2328045603128359,0.9242072903491918,0.35523018238212606,0.23223496857719395,-0.6233899630749368,-1.0227013537145326,0.5603616665210132,0.5891517495270574,-0.24195993760001838,0.6731334092432407,0.4594344834485757,0.15957192595577216,0.1196839640198169,0.11491141207832603,0.36371792673803327,0.1594502835094529,0.33500437439709707,-0.2755308300664986,0.14644222092749243,-0.803203838895116,-0.01434478966944699,0.4089344388925807,-0.22122938156197858,0.5607783432948075,-0.39593436143978356,0.05837928398531616,0.13705762790584186,0.3180170321958226,-0.2542812110476905,-0.328677238501593,-0.4340198203083335,-0.19165441485997906,-0.11586361261371246,0.6086599156022207,0.07939760739052074,0.1537314028149473,0.34520755761852007,-0.5534425079901486,0.1387675645190688,-0.050865679176109034,-0.09494064192569185,0.3601377800570188,0.09481719670355698,0.053058923538659784,0.12671615009190607,-0.3300639436425811,-0.40687647680513767,-0.3745595118573779,0.1449358555999226,0.47272849319838994,0.21624251703418493,-0.40766031642239914,-0.2445525292269425,0.23555745567334715,0.3082053887128536,-0.5384382555180385,-0.20688728656158475,0.1651160589533629,-0.27237458059832476,0.1244324530426455,0.1550853771292072,-0.5404177134435427,0.3866573416051734,0.19318901165607,0.060682802395505296,-0.36524232667858164,-0.32226626530541597,-0.16028566511040457,0.2878126994947708,-0.6051237296135722,-0.004739768109279208,-0.4092999175144666,0.4037789024558293,-0.20195197404028592,-0.016064888420538135,0.5016192940774075,0.1919707108952725,-0.160761865541452,-0.03143167613926774,0.13000119293346574,0.039451676249897184,0.1275459187416433,-0.03160124763767149,-0.1305317120076215,-0.04041431140074914,0.10834473478887416,-0.2023193230510666,-0.019661782247142476,0.34406147077054217,0.3207347779340848,0.11503631941675577,-0.36205023662022867,-0.15634366822215895,-0.13608292165661118,0.020133954278773503,0.17599267739209823,0.20168996426554658,0.0997578507521335,-0.35074696280833384,-0.36065690921708343,0.04151571245577363,-0.09682507580010657,0.13549526781241739,0.2460694890998002,-0.12005354512181873,-0.0727753118307585,0.33667765004145944,-0.3178440873173012,-0.25277830102696186,0.39861471571682283,0.017329131719635713,0.11964643884195085,0.2778742005435731,0.3095360568265819,0.08419115931843124,0.21567335949393301,-0.13964265188455094,-0.2692901077153958,-0.34629797192222433,-0.19005739401786073,-0.030356883359842383,0.006795036292820174,0.19028790212468125,-0.16938028367554425,0.365445878538801,-0.3343677135114246,-0.07683252269478258,0.1071649892742159,-0.03585384719025586,-0.0489430431855196,0.054363852266585896,0.04636244754027047,0.18548888033739352,0.4745493196795375,-0.026041503828782807,-0.06449252010586044,-0.22775211559567501,0.2833589154628128,-0.44311333606554243,0.04095024912655949,-0.061081515451635385,-0.059934933724481804,-0.012929308829875759,0.030862976032867615,-0.20042196287442016,-0.19027659104437722,0.035125123784955914,0.2924588672335581,-0.07056955886947244,-0.3974425807645119,0.0007980452097921373,0.05346604810792109,0.09122962263573677,-0.16076387109774637,0.024626889066376067,-0.15108093518250132,0.05227862391645179,0.3846106412123971,-0.06699727155143716,0.1911881587401187,-0.05998719633063579,0.07643736859583793,-0.20971760938008682,-0.0373808168511859,0.2959056406044489,-0.19184951004575376,-0.15247405078744145,-0.08327602379922061,-0.09827367591844517,0.2532970311665874,0.0565516705204013,-0.13740961592631487,-0.24679946887439808,0.016298343837121122,0.0745395912549434,0.13581445738685885,-0.0635578190831885,0.06659534192267681,-0.04672154721428386,-0.017258859813926622,0.06102945505001858,0.07270875185034485,0.1635252201650683,-0.008894153577401625,-0.24141588372906278,0.03636027079067455,-0.13558583928461718,0.1394253850498539,-0.15373136764432827,-0.044312150166673,-0.008479555033886161,0.06135366049602586,0.17374531645617025,0.05624014568128301,-0.042050294602199216,-0.19664128850693488,-0.0010478004579304537,0.0325286847347242,-0.03187531032889916,-0.14105661270215028,0.07859183928717371,0.12306874797843284,0.05363543135793237,-0.25378715681031105,0.05162661610092221,0.022002103069346038,-0.10575189647316419,0.005642713445218515,0.16150685803898088,0.026859313037042032,-0.08558717618653476,-0.2181136756764809,0.08406346303044208,-0.18637792638999537,-0.018683024025507578,-0.0025540844868562206,-0.030457567001189564,0.04959092859459677,0.15759746566597369,0.21886849400575814,-0.07698025183296796,-0.04853773384687688,-0.22124060111507488,-0.22114673686117575,0.049767710437008936,-0.1456359527153592,0.014042858013417547,-0.08561737127219197,-0.08804586305660318,0.09940777250969995,-0.07051331583486109,0.016815751753159712,0.06036978110299777,2
9,-5.595778354558753,1.4833468622112091,1.1384173875439483,1.3771984318490977,-2.140553096956452,0.5252132113215573,0.7144790173992142,2.2070057412710384,-1.8418004054428638,0.6341909904847163,0.5218624876657288,-0.6171702918192052,-1.2576103589921692,-2.28371878899763,-1.5515386928283637,-1.5294847935549842,1.095052047434782,-2.0392795378840742,-0.01978244413863243,1.1624427726134299,-0.16886232944327748,1.1965217456286343,-1.1392246876588106,1.1147882691221394,0.38368514712659657,-1.4561774770406193,-0.6929695139613328,0.5589124070894882,-0.33084951664605655,-0.39718829790081805,0.9455238602041856,1.1212040594183947,-0.5352653474369414,0.9813817286752289,0.09639220579145782,-1.9482902518561267,-0.3333591590958285,1.4001080034709161,-0.03570622573465493,-0.34450759540127013,1.8905993011899858,0.35675371112038545,-2.2209675665781305,-0.425245706698956,-0.7842231149966067,-0.03174245343337935,-1.296147883114227,-0.38617968017426524,-0.2944753163559622,1.05724832294225,1.2465027015763326,-0.5501624203685697,-0.1141044118273041,0.1981113959618255,1.0452543819590465,-1.088252550503344,-0.9494148727433656,0.2843891363732636,0.16005623456613136,0.1262629762400008,-0.28384770586562635,0.20455891497759832,-0.28168376870345213,-0.8485233272281362,1.1276186373958892,1.2250788085547064,-0.4033241951789487,3.3431804779488856,-1.6385333525844916,0.039303023603002016,-0.5172489063935897,1.877744327161599,0.41900130330535706,-0.5979484111859213,-1.0685352270807964,-0.034910508970092353,-0.3760418326281574,-0.45030366254429166,0.5445534131481798,-0.3360392237672053,1.0532974994684283,-1.2010544212725083,-2.1158293986423096,0.4877244878075186,0.38187391961794354,-0.38963124231984936,0.4109557679477832,-0.3054674565789682,-0.2677919349419723,-1.0574139697528875,0.3515153324596071,-0.18972687258511797,0.6286081654638263,0.1482901402096078,0.6596258304124221,-0.3153220286060162,-0.4874959245674132,-0.13722152076385963,0.41368578827289876,0.9477886901739153,0.08705118146354814,-0.6004219499683309,-0.3318351748541369,-0.38910458584995794,-0.3045411834764749,0.19538337458027588,0.35029735813671375,-0.4500217438119352,-0.17126754569833985,0.5200954608884774,0.9258838212752647,-0.8083690119741985,-0.49909662553712597,-0.14737544302160113,0.9778942128024627,0.3613527894572637,-0.4583015733686797,-0.4958495207337414,0.7299126654711765,-1.5875946240023024,-0.11783724672987424,-0.31422083951638824,0.575163041199553,0.17242472758667965,-0.28897386510714096,-0.5578391503161335,0.5746988225664517,0.20634697576946726,0.02254272280115791,0.22115701332701573,-0.14968610328540985,0.2775287704729258,0.627620793709938,0.20411487710058263,-0.6286092523124749,-0.4915964303998458,0.025741424462080588,-0.9072810005360439,0.7779509400791322,0.47792277152544577,-0.2636207076217947,-0.40348343987678575,0.12115809263332551,0.07469756471150099,-0.3062399881978217,-1.5475313047010926,0.42250489706421807,0.07578270606112088,-0.31204578887863266,0.09703155038316065,-0.015318140536808194,-0.050213740068214836,-0.4081392506645756,0.10028269961269883,-0.5576898754192324,0.05149711244697529,0.5122664421070717,-0.10431074322848606,-0.06956373586945257,-0.5938880753054566,-0.09073260963313358,0.6463623183693764,0.5021017464328023,-0.6659341465378554,-0.4970627525875708,0.5591355896599772,0.41717182594112723,0.15810208622617247,-0.3451159288188783,-0.5560121049444963,-0.6031268053060505,0.25793234892040634,0.0038568973155825802,-0.3523426280576857,-0.5052455200434377,-0.15030648749808476,-0.1555130195444108,-0.3872580764793768,-0.28421368083533344,0.27103098794694525,-0.6898383438913761,-0.3011746400037349,-0.4996966690844281,-0.3499225835451894,-0.3009549689474901,-0.37155141744713976,0.052234807615864055,-0.14145593516736846,0.15234378646780564,-0.2917685389901514,0.04890579693034922,-0.547434562332217,-0.21590776708699186,-0.5246392011427079,-0.23453720540477768,-0.45056119763669417,-0.22013625635921508,-0.18388028291899133,-0.3351952344324146,0.09944516424047518,0.19273096034815212,0.0834697376643731,0.10522156126850525,-0.20457513235634292,0.059984723338947735,0.1773423547153827,0.09510840593396758,0.2098367444482633,0.2677840558318688,0.2778528803679016,-0.362455781557645,0.2529720975255994,0.09260718281072762,-0.21395645596112314,0.07095881658808652,-0.17010209548582086,0.005718114416460728,0.12906134991394194,0.547371089296174,0.3594615466662514,-0.15513228389351996,-0.3500844129269906,0.06298214907200118,-0.04981876738522795,0.3556578700946471,-0.2847145432516133,0.08280309004678732,0.25959624796009106,-0.22763930588893502,0.1523644076055367,-0.11436845299885945,0.021365877187304812,0.32780449434350956,0.196736724826918,-0.2924933190753715,-0.04890157187683542,-0.1876358086662919,0.016868919894923087,-0.04169516105765312,0.34648419678665027,-0.4371424132243816,0.26235641076938837,-0.16102417395769544,0.18065276037941416,-0.088673455097675,0.31171045508569134,0.1425225704217665,-0.33830671374667104,0.1862725685044481,0.09316725461100922,0.23681861294911327,-0.028954572990996984,-0.303459012707058,-0.11221634808476282,-0.06334442314822272,-0.44109587394613425,-0.48168020860030886,-0.15866832700243858,0.28767782279962434,-0.09215547602624134,-0.21812755082225263,-0.019458245035311433,-0.13824932756549027,0.2852898420354522,-0.12617405917371896,-0.3351339458048184,-0.16943684715283244,-0.04711856021516057,-0.038373310014939786,0.21886208979346702,0.3263669526364415,0.009304320750134239,0.23497485493141118,-0.06352927168375476,0.14379922060616027,-0.24320298489201245,0.012200470135856492,0.4236102101670259,0.23664409469964903,0.09239822872528204,-0.015542011186306923,0.27376325646964617,-0.26933882632387723,0.34470624175560743,-0.022399008931157236,0.06905485866019813,0.08109441122361169,-0.31919605076005636,0.29750682739077544,0.13863145467202134,-0.11757634708063276,0.12897186812755593,-0.0554346175015003,0.2640490941896176,0.12025741263471754,0.14208405051958972,-0.25748491804519935,-0.11802203891571765,-0.18389395947354217,-0.08812472920959884,0.03556786660579151,0.07270779683310827,0.11901931667165966,0.15400485013810516,0.11896844892398925,0.1751523731398796,-0.031209930168075908,-0.03400571299237359,0.047871661536646376,0.16533711185576827,0.21718388101317357,-0.04566219526890182,-0.10105669419406914,0.019462817051789073,0.21947533656329596,-0.2520395708602178,-0.03828640325766514,-0.06544380925404107,0.1345874317924887,0.2562666795380967,-0.3627412023198048,-0.05489848766586375,0.08612237094389627,0.06706941329012862,0.06677862018721217,0.2900775428385101,-0.06950585625720239,0.34924148392662435,0.6019232728511349,-0.21698977170593037,-0.051407460926501246,0.147586124720907,-0.0825936121842369,0.02718326389108169,0.18969540442354363,-0.018283231501694672,-0.26770783660772157,0.14823278078573743,-0.007594345154937546,0.2720108222037695,-0.11050978173834822,-0.044720408179335654,0.009020863123886159,0.06992366035734915,-0.0874829664285333,0.12375484883954185,-0.11442253841336372,-0.12416721693644606,0.10977301241218465,0.027587864258437025,0.11019291548018187,-0.05534169148186296,-0.005455211439967249,-0.0734897706992644,0.1545161672376882,-0.13375220781750993,0.013052436371454547,-0.07834099729414198,-0.04019843836691225,0.09325950059267903,-0.060139700346476276,-0.04241323701113668,0.050065350247138596,0.05298407713327106,-0.05938996959406923,0.14283671053157998,-0.07905305031172359,-0.024167133324899073,0.25624983056862244,-0.05253850629195047,-0.14897950581676347,-0.1609542315332627,-0.10936885294928772,-0.10754413509352685,0.0464086614016722,-0.048147641161252246,0.07244863122480322,-0.1792241997440981,0.015632297347049833,0.035823012428987056,-0.1280160047508375,-0.07556384093592432,0.015416531778403816,0.011123122449681075,0.04331063280524471,-0.056418757767696226,0.013027524758173826,0.10014736537394707,0.0940863309487275,0.031289600329454444,0.020658994540007337,-0.03195815290931226,0.10168094243444394,0.12391098667071221,0.005157031557939097,-0.007724287075861363,-0.12191098131709412,-0.12776413174341672,0.12109960186287158,-0.06779658586001908,2
10,-0.3460741849490543,-1.222049259216529,-2.86093436437474,-2.7523111564640503,-4.263355481867696,-2.349991403081593,1.7249694927397405,-0.5410894061085059,1.4099237707608936,0.8297841099860545,2.50155247813856,-0.517598877899492,-2.106098400842118,-1.3851376607855361,-0.7047590724782239,-0.9443679838225373,-1.0307869958802411,1.1425127881602266,-0.5429276279861792,0.5143330111677693,-1.911804701501795,-0.6035510301452764,1.8828975214354422,1.1409407631769664,0.4211774413479886,0.7967749305269661,-0.0746268078905072,0.9660444453802594,0.6503744174297287,-0.4274390288651362,0.7331972583150117,-0.5800171801001238,-1.8344360491944416,1.7694746555001688,-0.08270092708140252,0.659618242432248,-0.7908635031282261,-0.4877802714488026,-1.8766102463016163,1.1025130101140497,0.7754600579540513,-0.302229874048426,-0.4963318635624184,0.13765533796260063,0.26404841253274064,-0.6737406263465708,-1.2178665162970013,0.2516020345092219,0.09640516476037571,0.19960169114102042,-2.1193398443680995,0.835653710875146,0.2926093275079039,1.6798539347778212,-0.1948099000253406,-0.5905001002443201,-0.2371887511729405,0.8435547326115691,0.7928515387609453,0.9889402118253474,0.7770957101433631,1.1342488805071311,0.190191069808919,-0.6626221988166325,0.17159271850844604,-1.3243251594652872,1.190841826455616,-0.47099532865796595,0.19616491597012622,1.3230447891811852,-0.6756527337091306,-0.9173357699554024,1.9270056009314283,-0.3475419954670871,-0.06438914538275117,-0.22978216590058517,-1.7261298583348665,0.3834589165497113,1.3825258934882327,0.6530679723088133,-0.9362082216589159,0.4822838024681674,-0.03622801541468202,2.1458095892967903,1.0071186278397193,0.14949592622705987,0.19727029702355978,0.1911376821280046,0.8904958319045536,-0.18798381835151406,-0.3475298606142504,0.48581165228900025,-0.3704949652928958,-0.6137364563962098,0.14461615993545737,-0.170970259527734,0.40029482737573235,0.30737718507262757,-0.6951639294637791,0.775026247372261,0.5283503771493196,-0.5148076372858517,-1.5812617522164436,-0.3188433926595202,0.3928089460336925,-0.4919055098768064,-1.1264432830596123,-1.345569951639848,0.07461562853678881,-0.8712206661654344,0.1604871207559567,-0.07079356388745235,-1.120099118814399,-0.38367055187834975,-0.15422949971230135,-0.9334833351971712,-0.4466617813438042,0.2813300107031947,-0.4500319686080098,-0.34211061646586793,0.7455691152984393,-0.7678477429860945,0.30855498542363236,0.16238569362733812,0.34549021095785454,0.5251853436400352,0.4052488840658143,-1.0894002608691054,0.391268277437466,0.21403675094382218,0.04960341918543739,-0.35791781735020145,-0.03163130446894223,0.6424824171495384,-0.21651950757582866,-0.11715778993093125,-0.11290772896239472,0.4731239252030082,-0.8070800619948304,0.6695957350362648,-0.011380669370628914,-0.9281341003729756,-0.4125717483911759,-1.1054712411221659,0.02589513718878243,1.678367108259559,-0.9661121136572739,-0.5573619405799934,-0.6201745663348102,0.5486162577502085,0.4147259225307931,-0.05078875816202389,0.5759925835201799,-0.11830976147215734,0.3942698357729114,-0.26455541702240837,0.2943390027716084,-0.33353193409453297,0.15986176864272172,-0.11741641180103121,-0.406381621299118,0.047899534602919826,0.5232997834968424,-0.03816106781128225,-0.08262405671012044,0.16449396928583143,0.44318791851963535,0.5670785443299159,-0.2130779931898326,0.2185480317251729,-0.037183442261217114,-0.08311349997413654,0.186529467748134,0.153490836521653,0.10155066473810043,-0.4282467152042036,-0.698190919646439,-0.045551679199540576,0.06176204109758943,-0.1983988211382367,0.27306639288915713,0.06375514287470074,-0.2473623441077644,-0.3962504062931906,-0.3533363560874844,-0.6183096560012488,-0.03937302678367871,0.40985181201061327,-0.8321286951141648,-0.0913782335944343,0.041599401484153135,0.106796448895123,0.5319893184056538,-0.33355716548379766,-0.17946761460306404,0.0008348909368045089,0.47769772890306866,0.15042523856295362,0.15827205598108737,0.1048787122361286,0.5898808344151816,-0.1747403515856861,-0.06397248285004838,0.17932211041451268,-0.2568627552671579,0.1548272801096036,-0.1824405563839036,-0.024103644977383015,-0.17064032098420068,-0.44223323293846306,0.23606959173752678,-0.22666827119584676,-0.09709018040238343,-0.4660099676484111,0.09597235944258496,-0.10732087408477332,-0.27166813628010916,-0.26065965081975667,-0.21831202906637973,-0.35549867672673774,-0.002423392123223567,-0.678947342801455,-0.20971981124806463,0.10233830245816716,0.16260443007464306,-0.22174187803056247,-0.42290240966484777,-0.03504893335490767,0.14372706414658384,0.5656578456929985,-0.41206171297901223,-0.30081245133424117,0.3206629443582028,-0.3975766596164795,0.0654825627930055,-0.06622726735743222,-0.32254752720532814,0.3826490892860579,0.4277018822236636,-0.4954723318455893,-0.29277022893625015,0.1771896387348715,-0.3378664098658253,-0.07400536655676371,0.20564344429458956,-0.0694501626092232,0.1537909856091076,-0.04819729582391665,0.24804735556068527,0.061669793887473574,-0.2114647700817939,-0.2679927841280804,0.19503649023168926,-0.20092349539404825,0.2901178883671245,-0.08067054337669187,-0.15614242130820716,0.004227679270066847,-0.22234654301809653,0.23644017832669018,-0.020040276903216386,0.4861464721488498,-0.30110256412655717,-0.09947204382349392,0.020786471838908832,0.14082546279580427,-0.1154263989809957,-0.17649406802036774,0.39509847365262424,0.07510161256851187,-0.11388112510375996,-0.13500261565950278,-0.05350805926063236,-0.0700099925884065,0.1818300290763184,0.0895512216219828,-0.2737618856844144,-0.06768780268657892,-0.44856703082208765,0.28995328470048987,0.0482951358804157,0.2629840936707253,0.17357464410770262,0.324590889877161,-0.0789568059826196,0.06787561680196115,0.08644149561002763,0.027597872917496418,0.300352013294406,-0.21589115943964504,0.10982351527498699,0.2001400328506806,0.07621451554217781,0.23040759133924932,-0.0062823854549227225,0.31492359137928416,0.2637045155053345,-0.1314486123311031,0.09240549926822851,-0.22429205614797137,0.03708146860308012,0.13946723623564652,-0.3188437636176471,0.030999412045891243,0.00782381977508903,-0.14491888238894984,0.15016407043107283,-0.052352240103044914,-0.39351672124173104,0.142192772524504,0.11063900073606991,0.00010940537067057603,0.13241338530373975,0.15240628938998904,-0.11707457476033233,0.089150969536582,0.005181972635547963,0.22648405255015935,-0.2655679831559346,0.029981491931383226,-0.28473895365193236,0.2263483510058844,0.18433073292178298,0.27500178827602195,-0.13309927933113963,-0.02978339786369392,-0.08947319660220152,0.09089340707414446,-0.14343315912990098,-0.16569322115994228,0.1739066962674598,-0.0020785226889605563,-0.23505098980933692,0.11292441620050031,0.0829366092346553,0.0501782822073596,0.1877460069955538,-0.09225552270475958,0.23439185265223778,0.14383168236110883,0.0030025165669499898,-0.00198885969300956,0.10706481785140506,0.01942930928969933,-0.0412640800422993,-0.00010273679434194637,0.23196492158575444,-0.1767105443100542,0.08289979081164986,0.16363700406672269,-0.05489905222618483,-0.33042872490828123,-0.008853766013160796,0.04677001180673423,-0.048325471154692906,-0.1316743883541577,-0.07921549699454607,0.027843929555834413,0.27844853456244884,-0.07079650355332207,0.2213183670508143,-0.16208065561477758,-0.0850348310516238,-0.06525836299444403,-0.1551244958200358,0.04771144567989508,-0.052678035995222625,-0.05704009421886657,-0.1291336702648811,0.285096776736556,-0.031906463483904184,-0.09995991218256867,0.01948017922653436,0.10087217916244136,-0.02794291047143036,-0.02441946890622521,-0.06585196059601671,-0.18604133963075184,-0.029730065411757593,-0.10422699852262271,0.12592971205250816,-0.12272131677519649,-0.13908527178260352,0.10495994663253248,0.006483356704227358,0.035979288698368445,0.04910971522273554,0.04028843587013597,0.04566192520643623,-0.13447141550706745,0.030849927448618912,0.011905900110989236,0.015144436375263508,-0.02697515946699983,0.00040206737718873384,0.051237615201192674,-0.00025752337922638235,0.0522612510581921,0.04949438345478417,0.15819803497397292,2
11,-1.7297857320564,-3.8165771946776648,-2.6478572475505464,0.7416710079746136,-4.094229313060066,2.478110808281107,1.5061822704874832,-0.5424860825342408,-4.697171090724448,-2.9979361563524427,-0.5422300942130857,-1.2101908490329398,1.5801425949243608,-0.2392328199786634,-1.6911181203550596,3.5481135249594318,0.38316395730599806,0.8910772852613695,-0.20117412833733656,0.8598013745976015,-0.2139360683669936,-0.21559379599566528,-0.11737413583279695,-2.7384433125520657,-0.17362945063372284,1.9721829570509872,1.8976761711735175,1.5050838927899328,-0.18363791291748954,-0.4351983122617672,0.37074776715971697,-1.1101845830061896,-0.4688790173380671,1.5172941082168239,0.8401245497630256,-0.9250956116915751,-0.39780190552188327,0.24712215014299618,0.009293913722388332,-1.0603826224235167,0.09770579219560602,-1.2394072977069448,0.5541887999903156,-0.48620463287763926,0.3337104030195883,0.3542384924742555,0.691224977646176,0.49762294116321815,1.0058654369158653,0.94462883748511,0.6937224687997011,0.42239602466234494,0.7815583913282949,-0.35169331240048235,-1.4093426931650623,0.13258691943116047,0.5866380810684693,-0.05885793455107384,1.6165220636222675,0.3639468450710846,-0.12547586422153315,0.42506011500851304,-0.3168213361174144,-0.4139170928756695,-0.1663093205767521,-0.24214292814149954,1.3666286715994826,0.1084970435274874,-0.5145163535726779,-0.08238529329639234,-0.2968945799836151,0.39924215916705563,0.4888659704181092,-0.5509474100801428,0.41788920159702275,1.1824594449978927,-0.08906669213128202,1.0483850191621922,-0.004596484438587651,-0.3703397275282908,-1.02402821959153,-0.2555513652753237,0.38948721340807974,-0.4462443748416646,-0.1562176921758374,-0.23346922970944675,-0.2762761997779437,-0.3636797748298395,-0.21383069089298087,0.637892906445023,-0.48072697383900387,0.2319860596392477,0.20768162023015763,0.3397515467053687,-0.903673642099328,0.2109183700411589,0.8605985417871607,-0.8753569609049464,0.43762748967374604,0.30845678401059284,0.805828589917368,-0.8365515981490487,0.35472237028538567,-0.7349908027637556,0.1042945249156237,-0.37973776907909174,-0.20379151376914487,-0.34763421506507924,-0.0455218583799841,0.5646014832486568,0.011392212171575166,-0.2906349618259611,-0.14928157804577902,-0.6881157042251068,-0.036522372964974015,-0.3987087511576188,-0.0897920866998952,-0.6205342743937036,-0.6878535184320285,0.004164819774149674,0.14444051536520078,-0.026522861838561326,-0.6059330625586744,0.12133344651153426,0.2216955062870932,0.2341451053726172,0.2288334123404548,-0.06802457548393367,-0.25935032721593027,0.39756619173158203,-0.19951853655175186,0.17960888669400044,-0.7290518894975773,0.6729331880377052,0.3613279395961755,-0.34389909992535767,-0.8049390860716968,-0.3714442631748799,-0.29513188670735185,-0.451065175728824,-0.10443363009748853,0.3463200531798291,-0.13605341783522468,0.14629261333806862,-0.3058633105487255,0.0936351889319156,-0.061804257344594334,-0.44954933022589455,-0.022134401275393543,-0.12898522172777194,0.34152992800973403,0.057017991956800226,0.4268881390466443,0.13402309648944158,0.8944964264387562,0.13214055386139653,0.406677137513718,0.3084086343672412,-1.13001119774595,-0.4654790875181867,0.16713851574396563,0.15252595844882996,-0.5105145670822322,0.33870974568209444,0.0546288241143923,0.5663496873558316,0.03838913413943171,0.22115540539926615,-0.8680682033943126,-0.2722886927932239,0.21184757911246405,-0.21201206791182844,0.16316204159261755,-0.3061999768244052,0.4145797460120051,0.6249967422256032,0.4612462147471044,1.0424135055792438,-0.07459843575408807,0.04141969602525554,0.18213372312010428,0.0372015416888776,-0.27204195501032147,0.2987092423166458,0.6718704419114566,0.07229316048038573,0.5264463256268752,-0.2754715790157791,0.23065312540679803,-0.12879909200742828,0.16136168211874563,-0.2133956283200427,0.03642858269693339,0.44889767256384894,0.2550797180252734,0.4954910463417572,-0.10280110551785375,-0.12711508992309803,-0.5432060274315272,-0.19712101316311398,0.20033978877997785,0.3131325170331933,0.18258967134162632,-0.24181619339992516,0.4879302211658642,0.07469139687134267,0.6325698478425434,-0.17097859844119576,-0.4771445810420632,0.024793981027103274,0.5314900594870374,0.16589610219307654,-0.36662540801674154,0.011411147443780583,-0.2299272577564023,-0.16010005102452554,0.3421364551750295,0.4096603451225434,0.0801174178333429,-0.07421674715435027,0.4492989859255587,0.19088917850257536,0.026164625712598002,-0.21628131047572108,0.07481248663393031,0.17088108168099922,-0.1430383808456969,0.40047844942702854,-0.15752635255752162,0.5292570011568398,-0.29409818039233226,0.10821381892915591,0.08225838152719103,-0.5825356143522044,-0.6454810341512357,-0.0022731442751373816,-0.14130718811012102,-0.23140457150256927,0.3455178032767602,0.0435441512198634,-0.023706732852379477,-0.15766397799016388,0.34221285544940294,-0.03722925228927369,-0.06712996365235345,-0.5359665007693504,-0.0747802844884027,-0.06209571896621692,-0.18964289401857692,0.48282296216263687,0.35093792659639156,0.3270460059771828,0.07202708553044643,0.049235201676254885,-0.2771148504938854,-0.0027450497697396013,0.15147057340822584,0.33080481050647953,0.5967992083927703,0.45047079609664864,-0.3839746119334907,0.12467356506461383,-0.12438347522914271,-0.2776357544308606,0.06282356806169388,-0.24258880678687997,0.6882887950701135,0.5779242832911915,0.16547742658741035,0.0031249917958616155,-0.12089088164923302,0.11275297884583384,-0.11313430993766957,-0.05231653827369237,0.10499786441223895,0.07703369807069628,0.16730923226648048,0.03294914784160765,0.08325410347391073,0.05233296100673929,-0.47642025247030245,0.012203341743947929,-0.12888156359763323,0.12854799642879386,-0.14919055271685597,0.18862855634305511,-0.04599440809780505,-0.18258826009396498,-0.0829063618662022,-0.016191236697986555,-0.055638532314758786,-0.05999483341384037,0.05534653869847544,0.023972077126022284,0.11566944192907264,-0.03779558885522661,-0.08414527499197082,-0.3679501705272208,-0.03633932514059908,-0.06418496910492467,0.0620652570958315,0.09950238145430657,0.08421483302507371,0.041544379768283644,-0.29597244261938355,0.44527420851332966,0.014156257268186954,-0.011679266031267201,0.034959677808045195,-0.03041288014649108,-0.05074152393818949,-0.08853594770872007,0.22628622637137144,-0.15754144881580112,0.07762265625559639,0.0027721532712329717,0.1297722192354925,0.2952636039279236,0.17473654781829823,-0.16318145175456034,0.10788439834830449,0.13441750427231894,-0.051314103380867185,0.14154039198976034,0.27582798880998943,0.06100321423124573,0.29115748113801415,0.1671472559628815,0.052055346579118075,-0.24520340885063285,0.0886973241118837,0.015945663557751698,-0.020125665346894885,0.34122983905908816,-0.2991553724637117,-0.1631558683444877,0.04996241730452759,-0.051043958545578284,0.17846436816086145,-0.004868251202098255,-0.04594261982511946,-0.17355601362367568,0.023362274236316434,-0.07589933554199094,0.10243451741824827,0.11998915903701168,-0.06334117144218465,0.26955628497247613,-0.07152988396382919,0.06411597389526213,-0.11734471966175919,-0.024399314072808945,0.1330355641981846,0.10456139247040995,-0.15636190869463604,-0.026641666856494464,-0.3358275808529359,0.030590148118243368,0.23666605476441657,0.10447611503223271,0.08342729566571577,0.2079372799793895,-0.0792687055836637,0.023098541605807998,0.048883378818311854,0.11046519396085712,0.08202994696701853,-0.01537536578167809,-0.0824499770492988,-0.2201400132732326,-0.22681375581084498,-0.28924537284799234,0.22540653674251054,-0.0934151933535711,-0.027807736457722852,0.11785715165662987,0.03183143621427937,-0.03941889942136216,0.028337964371956452,-0.012073866943040842,-0.008376586053959146,0.023922876969896124,-0.03196931168355862,-0.1281853969150507,-0.11398592556455157,-0.11433755830005429,-0.07060877566950549,0.22308601815385024,0.026714871140213543,0.02838979762035552,0.12310392147267937,-0.12408404664974938,-0.044526867392356714,-0.011297202720076248,0.14348462253456606,-0.06843525028356623,0.05799407265915463,-0.18713052140846304,-0.04666070977233339,0.023145109280679126,2
12,-1.0311643466106182,-0.9075733282846241,-1.8690812282796696,1.9648636217450446,-0.5493150453037563,-1.8714312127182184,2.582181493681421,0.812423736219805,-0.5878506830503623,-1.3393489480425296,0.3288922463711412,0.5288204883929966,-0.38380225628624903,0.3259409506796301,3.0980832598881554,0.8356493840235606,-0.7809007496534892,-1.289234526541906,-0.5735250366690556,-0.23455405138047553,0.3386261842014073,-0.01709989341278381,1.5166045630895337,-0.572389022339659,-0.1335148595556528,-1.0657881029379335,-1.314244237602739,0.8650138437697307,-1.1234880717728604,0.4425369634366331,-0.05679036674665827,0.5210463738435135,0.1804098225824637,-1.957610051863853,-1.6071826054324867,-0.41083150255248596,-0.23454489968296507,0.13302689975452991,0.5536443836236632,0.6626238691669087,-0.4874613578835989,0.6028714760367777,-1.6796439107926413,2.226922553258689,0.27228737728285973,0.8022316661968014,-0.9902767998411555,-0.8546383666810657,-0.014237828274617975,-0.8893721855991967,0.20075836094581304,-0.5106294485031619,-0.029882704820415343,-0.9695842022371574,-0.7448470954984825,1.8169947535988817,0.3304941332353825,-0.9281135045733979,-0.08201373336201631,-0.3946349438147259,0.42476063892344385,-0.524334949772802,-0.251602186841997,-1.5817901968837298,-0.6724197516266991,0.5286981002174606,-0.09101490915558355,0.11064227384698966,-0.08337818093739219,-1.1406432650332152,0.7508912010312836,-1.5213424420518835,0.3153634784361689,0.15389595219091606,0.7083335707022412,-0.8735869436753683,0.6022901687011525,1.2729071474386715,0.12754667060993596,-0.14041418981853143,-0.8441775830446852,1.0829063877463614,0.2583723496005237,1.062428358423972,-1.378716801213594,-0.47587113518250035,-0.01573404409658473,-0.2542074593068014,0.3994785513363941,-1.5519072584387725,-0.16251131587037865,1.2849796340953268,0.5841442934233261,-0.22142326717752006,-0.2571360641247019,-0.8746773254124818,-0.6493153179654433,-0.5316540363529421,-0.9155234690717416,-0.34708513430883503,-0.05444454169296339,0.24273335639513818,1.3743203391460364,0.5065289064656816,-0.5678483547494768,0.40303697200140726,-0.4818578320446896,0.5179005784516683,0.7186352488644268,-0.5225178002060692,-0.2797605653332835,-0.6123617844482293,-1.2631421846114106,-0.21047741026647984,-0.5771950074883322,-0.33688259689668887,0.0613458635145965,0.2263015664108851,-0.63371147744877,0.09780746986276356,-0.08596367600457917,-0.28349990877487863,-1.3276132461270895,-0.5450209309656087,-0.5727851504906474,-0.20274058152721067,-0.5075175897857478,0.2596698094922679,-0.017210291982280395,-0.05972366018734929,1.02350056172836,0.5278015161619284,0.4026505883082955,-0.032541851301067355,-0.0818420670349632,0.20457219049406672,0.035051540200145115,-0.12814178597956924,0.2656555594432114,0.605887287900006,0.5134988266257982,0.7113317363954061,-0.38459525128219063,0.6769882470897264,0.5341816423550172,-0.21809773343612127,0.39365420007052615,-1.245326722138231,-0.018459096013125956,0.14422803520107472,0.38395422685561176,0.25159816807317253,-0.1522729023659716,0.6381346777037309,0.21150907901261234,-0.025757269022683934,-0.12043881769871972,-0.212310014177493,0.9031456775945491,0.3917960543268054,-0.22334458361263596,-0.15017814637229424,0.16402048365381652,-0.2901695899789395,-0.255080775781717,-0.20285516859456934,0.23360446902700135,-0.3907070483350421,0.04952687041693248,-0.19118396342414976,0.07151909519386798,0.18245084484153662,0.23445131195263386,-0.43862276889276736,0.3286532436066377,-0.1927865522374352,-0.12569957415092656,0.454501257907469,0.2036245669152621,0.20112026032027527,0.6483155812669313,0.33485174416065155,-0.5063325389802089,-0.18640976705636514,0.409968310784134,-0.05646020192095059,0.1634781685077391,-0.1958583813457789,0.345311003328004,-0.1677642348006723,0.29864438648032404,0.04260007115504153,-0.2684467763912537,-0.07971335481322164,-0.06547184814259151,-0.3430185795298112,-0.09323614818094585,0.23456415917710433,-0.314857906892601,-0.18780859781932935,0.1402011928522883,0.27441018493380653,0.0798519225291552,0.12348024568186823,0.609160488788715,0.1937116661324857,0.22254037537551824,-0.12285792262450351,-0.41604138037933397,0.21800412464530505,0.04438667708104394,-0.038183620921021434,0.047326708813598954,-0.35197733445721463,-0.18049280510513327,-0.5627847220151356,-0.48469573194838583,0.6699687680667749,-0.008069727505698399,-0.15170207178424552,-0.3244129517478042,-0.2388066110264448,-0.06524016433330608,-0.4361350464565263,-0.04915445240082718,0.15730184226718733,0.22245393120924434,0.6563184585517966,-0.12613802808554891,0.19448201281748503,-0.0004496027625707665,0.3094285180072299,-0.12942862894594312,0.08156241790726128,-0.12470464647557701,0.24309341574996154,0.16057931256408273,0.32613713968997066,-0.5268191308893977,0.25718196301421636,-0.14417408771512263,0.09187028545254103,-0.0284396008468192,0.18312306517770574,0.19109115125227552,-0.36676500131363066,0.34804631754686827,0.07004250059426043,0.020201297184844393,-0.22709795764707089,0.23679204311927696,0.28791433074490574,-0.10722769643430896,0.1440575068697541,-0.13234798483226926,-0.042038119633307426,0.22977648534460446,0.19833566266080832,-0.0587724075068764,-0.20139712921734998,-0.4260665342146227,0.13255305141687615,0.3199243553611252,0.22063969451097196,0.23950788994571912,0.12343882304853879,0.02616633783745321,-0.1566934414936912,0.23405448187978423,0.4142180887943815,-0.18675738734363675,0.13590515813465678,0.0044594014969689625,-0.03307917300514328,-0.11396557018787017,0.24944278702949765,-0.027790922280751446,0.046420490534318355,-0.14072425017740875,0.10331422821088787,-0.07254432656539285,0.21180806804236166,0.26684702512395814,0.09240054150133595,0.012672525878088892,-0.1495572018737989,0.2151802998796081,-0.21193957240538772,-0.08217617307196812,0.3856683709559655,0.3713519696095331,-0.04401549448244453,-0.17275292065797784,-0.23425548471441698,-0.22547619086317477,0.04020590107738705,0.47803790210816827,0.29636912472421495,0.2082464513710098,-0.04546856268613969,-0.14946863183768788,-0.15730728546360934,-0.016968193728462217,0.30157892363042965,0.09682181627705884,-0.15666261410347765,-0.029691581016234928,0.060474365907358905,0.053136733681284444,0.1852899841597983,0.005421920654620753,0.06949684348669516,0.18542168726549368,0.03883028158877519,0.34354645666710304,0.019578419468334607,-0.13431441650758236,-0.11754102505517347,-0.34288938659993073,-0.06222377029635873,-0.22291715573864243,-0.43664690594235356,0.26190263832857014,0.022096451282094524,0.026961772834624767,-0.00044980951017763935,0.07048284790965426,-0.1892362242298411,0.09831644953810682,-0.0007973994844046306,-0.0014002026940561712,0.04600434142235519,0.39613246633773175,-0.22216917572190614,0.10577740500720963,0.18417309645454458,0.005046622831092143,-0.1754946509818036,-0.06356927135668482,-0.11091052559772692,-0.34359568109042665,0.04581729306128619,-0.0543378048042431,0.134993545624859,-0.16986668184443296,0.20151550852188707,0.16060309693609678,0.03529585443919546,-0.12460031601503821,-0.1559807117320923,-0.06537970047861423,0.08181656855300866,-0.027834963250686788,-0.029600390121436615,-0.135905198604101,-0.1000107155376699,-0.25842688989301615,0.009615622776687208,0.004358341544124911,0.09649405889398821,-0.026557054783133128,-0.0379957224502796,0.0627345866073102,-0.059961144936388676,-0.18155259539046278,0.18065357239945942,-0.0362270497639704,-0.029016386668683402,0.012861335348659061,-0.0025106216979936665,0.1721660724131057,0.17961915086990454,0.012753910407035388,0.018964412894103114,-0.1662336292831985,-0.04142114730322324,0.004087406036253845,-0.09077141202795957,0.07865119033931517,0.046964842321991565,-0.1238636040973651,0.040938181191667075,-0.04697207308334093,-0.13916650296319197,-0.11053474079906464,0.0717514528748079,-0.1653168767869685,-0.08632245341490573,-0.041006439647923054,-0.05475573948317163,-0.20341872965812416,0.3381166746294394,-0.0719739643627031,0.0386217442616176,0.07957749866549312,-0.012706502375732877,0.1595165891574282,0.04789892380211932,0.0029120676150882633,-0.07543004111641897,2
13,-0.8373325449890463,-4.386822354516543,-1.2006890804707422,1.0012140386016453,-0.28037361320273396,0.0876923431079083,-0.12833675803691322,3.062549036133962,0.24488103363645722,-1.1916949842043214,0.005349346748136328,-0.8433396214216088,2.1812844173585595,-0.5021313839333739,0.25390453605214197,1.2574924175646032,-0.5010618103637249,1.048291124343732,0.9150456315436645,0.2907852707596134,-0.5184655879586129,-1.655631179809543,1.5826988616090423,0.7342875018122998,0.046229998658114696,-1.3661366520315539,-3.1371653423321586,-1.0858279804447668,-0.4418642975428019,-0.9402907077179317,1.4130307466300382,0.9459789578038111,-0.04110989329222859,0.5492566311017479,-0.25616359261801025,-2.649210261726093,0.14259318252441452,1.4486375445515904,-0.2826544555286718,-0.7368323436062537,-2.1148043258268734,1.6772114517730066,0.6418786029646594,-0.05447215710223161,1.737287789593632,1.3516259407931832,-0.4196653006356379,-2.2364338403962787,2.8996284948806688,-0.1301740123300957,-0.07738874941482635,1.2098211485265833,0.9749883523664125,0.531251157265907,0.5703006291389308,0.6441541793581989,0.5686317542794338,1.784252560701955,-1.0203609348947211,0.8246861250336863,-0.23053073384158984,-1.3442594547594173,-0.680229054354611,0.835818201398277,0.599663708708085,0.6239196541835905,0.07897396435893261,-0.6333863533088402,-0.7701399502240582,0.6315047983239531,-0.03307676991676227,-1.040280189379273,-1.0509454684847206,-0.7469549892987268,-0.6211546166439006,0.7968974585274987,0.6165077003244729,0.07839306666201203,0.7520557915129237,1.0978184916599882,-0.7624465120754776,1.3295391479922805,-0.09387001606947318,0.2907057679432395,0.6622601853414575,-0.5268160729731344,-0.733377273692137,1.077164517578726,0.156609560044279,0.24123945243161546,0.10059245781693299,-1.182673716649218,0.5571307167846484,0.011471023050957133,-0.08258304764365904,-0.21970636023370838,-0.503144906264056,-0.037923125804103175,-0.8292261727280923,-0.32116715526724254,-0.8811709241212475,-0.37524468279917783,-0.3846817655580602,0.5417704265436357,0.15064770663781846,0.20537495729934993,0.1725281471059806,0.3802219597566453,-0.8721140654977372,0.18153160221863243,0.5105306475328891,-0.03561940938835765,-0.013904553673082081,0.0501894217421461,-0.3049322881099,-0.6692267125674917,-0.4998278607490236,-0.44081565944960716,0.11965418933937387,-0.539993620745232,-0.25595532650530367,0.47895511348436015,0.4345370492700001,0.6957425621250725,0.8288766953887011,-0.002479269484563274,-0.1535963139764632,0.5517578951071161,0.004556478718843503,0.47290083736580946,-0.023565709367798643,-0.1648966157390339,0.8662074001486312,-0.23709942275718732,-0.07544066694487807,-0.6332143647208495,-0.20787896941538409,0.10198394235366044,-1.4554779577035226,0.1581584946119423,0.680426300991961,0.16881665939446194,0.1311288312886744,0.5070904586298349,-0.27076340557273076,1.122902987876215,-0.496592491100104,0.11757008517806992,0.027756699062224412,-0.01542667994579331,-0.6633987821469941,-0.3424936575620072,-0.4853834736126131,-0.8350663831378875,0.19555652104275756,-0.08407392943322788,-0.4845272308266246,-0.1965421877954573,0.21690337797080567,-0.23337732258239205,-0.006923241626952631,-0.3048278429861685,-0.4394176211724964,0.6193212090667026,-0.23131953434486555,0.004888707599622146,0.25751273476697745,0.13282652206342127,-0.3600500682753346,0.07510285269619195,0.2998701884515364,-0.36422424611460524,-0.09037210098134715,0.35209820404837067,-0.005989952397208131,0.17752024105605824,0.009724110497990967,-0.20044641195796573,0.057863533016918045,-0.07218497757340452,0.10239117430689672,0.055304107523689625,-0.5864993069101867,-0.012073473429882643,0.21859837000685273,0.04211136649760989,0.4455670928833734,0.4713859293869756,0.00362928782035115,-0.13420110019396173,-0.16400541881934008,-0.40632786051248343,-0.29967027992461714,0.23758512810971616,0.3792669820773338,-0.016850378359332407,0.0866528526542957,-0.21718977827821945,0.061308882430241636,-0.49564850412045935,-0.24166254606461673,0.07713006045199529,-0.10261596558485146,0.05913742376497889,0.09519292676153697,-0.25686388932342463,-0.38527257980061924,-0.4700370723167621,0.6929583442318451,-0.07847315809152103,0.24087320462875672,0.32403377305600367,0.42341894107827505,-0.06708018685566224,0.7619515430952557,-0.1489567042190632,0.07429591109376574,0.13307234038407895,0.049543836147379235,0.08433453893552227,0.5136264324074796,-0.7681079379820218,0.19781526895195609,0.5366956183352861,0.23634144167639198,0.0570599912684513,-0.3749840085604411,0.024050807684798912,-0.6897329452840228,-0.32701445714525873,0.25395505109627764,-0.24341412573076596,0.30248896996488994,0.22143984808321024,0.29865343067918193,-0.2832237860861507,0.12449790238192082,-0.20345615595084268,0.0803353242254457,0.10255114918856337,0.08192232909621197,-0.5375251833530966,-0.20171860474319456,0.20977218147726684,-0.2691562861373796,0.2916153552143002,0.14521090699914535,0.013582944696634706,0.08734485198439396,-0.4014205711919755,-0.39287902606736774,0.10968149890457357,-0.2863144965473722,-0.2820439909615216,0.1457048408753364,-0.3665927426350684,-0.18262032735982867,-0.5956302980196287,0.15524632713787784,0.24949464994782955,-0.1936811313503071,0.20166629442314787,-0.12434597115684104,0.35722923572888654,0.15463683407759535,0.01854176268170527,0.33280237629973203,-0.03177740098865021,-0.32320038001988755,0.013735105125659442,-0.00365751439310375,-0.12948402593786454,0.05056278378166664,-0.39294952921525456,-0.3635658743554372,0.11533924543003692,-0.2839522888426949,0.3479939274940292,0.14323021887339313,0.07606519678426227,0.20725262122910598,-0.29969464118381756,0.25234422415525765,0.016392673783634133,-0.1347941544792594,0.04070429549695569,-0.15899354084265155,-0.05376682972868154,0.1491674146141535,0.481452970175405,-0.04124866927297164,-0.09821421289234282,-0.07860535573522377,-0.01202716549252554,-0.12739065975517055,-0.12018097020855713,-0.1826870699804611,0.02052630820462927,-0.10432476445061656,-0.26392148804503807,0.21714096311333844,-0.13847665546215934,-0.23680089893365117,-0.12649780149116732,-0.07364621521269286,-0.1668564786195908,-0.222029695244432,0.14091670681544047,0.17530523892140457,0.019510416989001363,-0.05576418406098542,-0.035661739238749025,0.01564067664712613,0.17997556519539873,0.07579184587755151,0.04573343186269133,-0.10318612080836378,0.2834691618325,0.10631952691470305,0.2012780631806513,0.05228322955917547,-0.14431744304724162,0.1015677117924324,0.02950941792532284,0.022236732878132257,-0.02549968504413645,0.05240092180094324,0.12161407753498528,0.14355373210137706,-0.040479075993078505,-0.03262832873211712,-0.07038638613729499,0.02532123541900691,0.07710136626484489,-0.052738397134328714,0.12952380086544646,-0.05217016621694243,-0.1525428920744614,0.24335481519403482,0.07193934574096364,0.0032003378850703874,-0.030527693914052627,-0.013944720361373385,-0.03845948000163817,0.03309619764220657,-0.010230074275885138,-0.12059057634844901,0.048429860956806785,-0.12889156997089513,-0.4407791920309504,-0.21380139141040538,0.03434709440067239,-0.13192981766584655,0.2572747870160401,-0.1636716835540187,-0.3230901690440517,-0.020563425651153475,0.008776961818850598,0.09895436763318302,0.1345268460172147,-0.2119912304691595,-0.10377940893178737,0.190396360145763,0.03738797565116079,-0.20469624477607254,-0.05615779399910168,-0.12558502081568346,-0.07099329635717373,-0.1688101784310005,-0.01792019585447725,0.10225122429803445,0.04622578163237401,0.4028009744764667,-0.0055503601358397265,-0.02099108173337377,0.043552381007226054,-0.07605104320072943,0.11062682181501099,-0.13165308133935033,-0.06075264318924972,-0.07511708651210984,0.06584935077427019,0.263387105141761,-0.15344770603050972,0.12155462889662874,-0.031296528725159464,0.08942288652375202,0.2850342666177742,-0.057568641909783586,-0.05982321434147609,0.05275145137037468,0.03559377731466685,0.004274042365279606,0.04597430949117522,-0.12548267981661732,0.03045289188417253,0.07582602506328633,-0.014741374685156326,0.06908723336904579,0.08332100174657858,2
